1001.12	31.3893	11.4195	1.22188
1001.59	29.9512	18.1317	-1.55248
1002.05	29.4301	20.1995	-0.30699
1002.51	29.8188	20.9529	1.0265
1002.98	30.5648	19.7044	2.25371
1003.44	31.2062	17.127	3.41677
1003.9	31.6961	14.4982	4.32731
1004.37	31.6308	12.0612	5.72517
1004.83	30.8523	9.8175	7.30114
1005.3	28.8907	7.72759	8.34583
1005.76	26.7437	5.88202	8.57096
1006.22	24.6049	4.21612	7.86156
1006.69	22.7806	2.71764	6.71271
1007.15	21.8888	1.42336	5.49912
1007.61	21.6337	0.2628	4.3178
1008.08	21.8355	-0.7964	3.15519
1008.54	22.4111	-1.73246	2.0751
1009	23.4216	-2.40294	0.95299
1009.47	24.5696	-2.94894	0.20067
1009.93	25.904	-3.33073	-0.54841
1010.39	27.1208	-3.50647	-0.85172
1010.86	28.1841	-3.5697	-1.0571
1011.32	29.259	-3.49787	-1.19432
1011.78	30.0249	-3.24742	-1.21053
1012.25	30.1897	-2.90946	-1.18023
1012.71	29.7026	-2.42872	-1.12041
1013.17	28.2382	-1.8661	-1.02873
1013.64	25.3068	-1.22955	-0.89051
1014.1	20.8621	-0.54712	-0.75335
1014.56	16.251	0.11886	-0.56687
1015.02	11.8629	0.53902	-0.60465
1015.49	8.5944	0.99967	-0.57772
1015.95	6.59238	1.44424	-0.652
1016.41	5.2981	1.48622	-0.7397
1016.88	4.9433	1.17817	-0.93812
1017.34	5.48379	0.09408	-1.20236
1017.8	6.54501	0.68771	-1.39964
1018.26	7.84167	3.33171	-1.61343
1018.73	9.22364	3.90594	-1.76026
1019.19	10.1661	4.51014	-1.91305
1019.65	10.8417	5.87441	-1.85507
1020.12	11.6604	6.42102	-1.95535
1020.58	12.3487	5.07168	-2.06497
1021.04	12.7551	4.4118	-2.46705
1021.5	13.1682	4.18872	-2.94594
1021.97	13.4152	3.85523	-3.54131
1022.43	13.6452	3.23169	-1.24037
1022.89	13.9413	2.31905	-3.69318
1023.35	14.3227	0.6406	-6.29379
1023.81	14.8733	-1.29528	-9.41161
1024.28	15.4372	-3.25288	-12.544
1024.74	16.6789	-4.06994	-14.5822
1025.2	18.26	-5.35643	-17.3619
1025.66	18.7849	-3.26668	-10.6974
1026.13	18.8669	-1.10495	11.9472
1026.59	18.4082	1.3697	20.3462
1027.05	17.1578	3.43476	20.2264
1027.51	15.2731	4.2648	5.96703
1027.97	12.829	4.18268	-1.30121
1028.43	10.3696	3.58844	-1.14845
1028.9	3.05044	2.55116	-2.69927
1029.36	7.27507	1.31134	-4.17761
1029.82	10.3202	-0.25442	-4.23787
1030.28	12.2932	-1.17168	-3.88723
1030.74	12.6256	-2.12645	-3.32692
1031.21	11.9082	-3.04791	-2.35119
1031.67	10.2562	-3.97054	-2.15712
1032.13	7.99454	-4.82668	-2.15148
1032.59	5.20574	-5.80978	-2.26137
1033.05	3.57655	-6.73694	-2.36078
1033.51	3.64863	-7.99426	-2.51656
1033.97	5.49381	-7.98976	-2.81577
1034.44	-0.56143	-7.33342	-2.79658
1034.9	0.61692	-5.96305	-2.76693
1035.36	1.04366	-3.50888	-2.30116
1035.82	1.81583	-0.91665	-1.99262
1036.28	2.32095	1.1622	-1.68506
1036.74	2.35997	2.99993	-1.3514
1037.21	1.97949	3.93202	-0.85433
1037.67	1.04816	4.24636	-0.38497
1038.13	-0.13638	3.64207	0.11078
1038.59	-1.73052	1.67395	0.56103
1039.05	-3.43092	-2.22398	0.96878
1039.51	-5.38013	-2.07169	1.5875
1039.97	-7.4187	-1.62322	1.68061
1040.43	-9.25757	-0.73063	1.64669
1040.89	-11.1177	0.33476	1.26959
1041.36	-12.6372	2.73891	0.83771
1041.82	-13.782	3.95163	0.32419
1042.28	-14.2977	5.36963	-0.31017
1042.74	-14.0145	6.05432	-1.01606
1043.2	-12.3944	6.21449	-1.74777
1043.66	-9.92213	5.62592	-2.34187
1044.12	-5.67409	4.13727	-3.04439
1044.58	-3.96398	1.31669	-3.70028
1045.04	-2.52106	-0.30184	-4.38051
1045.5	-2.1228	-1.07299	-5.00276
1045.96	-2.76622	-1.35588	-5.6976
1046.42	-3.68159	-1.5814	-6.2365
1046.88	-4.61554	-1.39109	-6.96678
1047.35	-5.32839	-1.2589	-7.56421
1047.8	-5.707	-1.15246	-7.985
1048.27	-5.81251	-1.02158	-8.32036
1048.73	-5.69016	-1.06423	-7.96327
1049.19	-5.23368	-1.14907	-6.35129
1049.65	-4.59436	-1.39955	-4.50002
1050.11	-3.75321	-1.84294	-2.65294
1050.57	-2.00642	-2.56598	-0.43876
1051.03	-0.26687	-3.26095	1.8781
1051.49	1.0181	-3.92155	3.94304
1051.95	0.95532	-4.59909	5.85621
1052.41	0.86142	-5.62432	7.37645
1052.87	0.55495	-5.83559	8.54946
1053.33	0.21103	-5.11904	8.87104
1053.79	-0.26071	-4.50875	8.87782
1054.25	-0.65096	-3.93438	8.60574
1054.71	-0.79712	-3.35215	7.83616
1055.17	-1.35005	-2.91245	6.72504
1055.63	-1.8862	-2.08931	5.32427
1056.09	-2.59275	-1.33122	3.70767
1056.55	-3.01883	-0.54466	2.04422
1057.01	-3.23106	0.12889	0.32972
1057.47	-3.16615	0.7147	-1.1749
1057.93	-2.72827	0.85932	-2.31393
1058.39	-2.25026	0.08426	-3.27391
1058.85	-1.72484	-0.65602	-3.97022
1059.31	-1.27104	-1.61991	-4.24018
1059.77	-1.16272	-2.68652	-4.14065
1060.23	-0.87051	-3.38994	-3.70021
1060.69	-0.82325	-4.14783	-3.14065
1061.14	-0.91128	-4.57292	-2.4195
1061.6	-1.0444	-4.67812	-1.84188
1062.06	-1.37403	-4.47295	-0.61914
1062.52	-0.93695	-4.77377	1.00807
1062.98	-0.03604	-5.34	2.65772
1063.44	0.97366	-4.96976	4.2557
1063.9	1.67732	-4.32341	5.42698
1064.36	1.57799	-3.96391	5.31307
1064.82	0.77778	-3.72397	4.63505
1065.28	-0.21422	-3.77006	3.74797
1065.74	-1.05144	-4.04166	2.3347
1066.2	-1.69598	-4.50707	1.29932
1066.66	-2.17886	-5.12713	0.70643
1067.12	-1.9712	-6.02793	0.01856
1067.57	-1.70291	-7.18285	-0.86374
1068.03	-1.34912	-8.51496	-2.75945
1068.49	-0.82211	-10.2084	-4.78566
1068.95	-0.0605	-11.8191	-6.7282
1069.41	0.84265	-13.2876	-7.88436
1069.87	1.88733	-13.825	-7.85706
1070.33	2.81823	-13.9262	-6.9171
1070.79	4.31065	-13.2759	-5.44759
1071.25	5.92347	-12.0874	-3.57691
1071.7	7.58917	-10.256	-1.13927
1072.16	9.32373	-7.61233	1.36692
1072.62	10.7922	-4.06558	3.3823
1073.08	11.5001	-2.44564	4.91976
1073.54	11.2976	-1.14828	6.08416
1074	11.3022	0.16679	6.81274
1074.46	11.0741	1.77452	6.69973
1074.91	10.6342	3.24008	6.0568
1075.37	10.6474	4.46797	4.98206
1075.83	10.9898	5.50847	3.54263
1076.29	11.1076	6.20849	1.07311
1076.75	10.6839	6.11241	-1.47169
1077.21	9.98092	5.63807	-4.10198
1077.66	8.50475	4.91988	-6.09979
1078.12	6.08705	4.12191	-7.81009
1078.58	3.56288	3.81763	-7.94445
1079.04	1.0473	3.52143	-7.33013
1079.5	-1.63937	3.2803	-6.16124
1079.96	-2.6172	3.19899	-4.34071
1080.41	-2.56261	2.5351	-2.0859
1080.87	-2.2767	1.76663	-0.1023
1081.33	-2.11247	0.79907	2.35372
1081.79	-2.67561	-0.12414	5.14221
1082.24	-2.77294	-1.00268	7.66898
1082.7	-2.54619	-1.74994	9.83182
1083.16	-1.92837	-1.86166	11.2569
1083.62	-0.96089	-1.95429	11.7388
1084.08	-3.03537	-1.7344	10.9551
1084.53	-3.19445	-1.42106	9.72063
1084.99	-1.85221	-0.68352	7.08013
1085.45	-0.30724	-0.28425	4.21922
1085.91	0.37939	0.21878	1.28816
1086.36	0.43386	0.62047	0.05868
1086.82	1.06255	1.33137	-0.01363
1087.28	3.26289	2.40723	0.84916
1087.74	7.28926	3.93811	0.76116
1088.19	16.471	6.34235	0.66963
1088.65	20.4876	8.78045	0.59961
1089.11	23.7246	11.2393	1.11166
1089.57	26.0701	13.3595	2.93167
1090.02	27.0785	13.7481	7.2915
1090.48	26.8749	14.2794	9.12208
1090.94	25.3887	14.6132	10.9515
1091.4	21.3602	15.5065	12.7683
1091.85	16.5868	15.0692	14.7739
1092.31	14.4173	14.4781	16.4418
1092.77	12.7172	13.6862	17.909
1093.22	11.4997	12.8739	19.1593
1093.68	10.8611	12.0277	19.5406
1094.14	10.6297	11.4731	19.5391
1094.6	11.6326	10.8342	19.3712
1095.05	13.774	10.0928	18.9407
1095.51	13.0026	9.39213	18.3728
1095.97	11.8969	8.62496	17.76
1096.42	10.6736	7.83372	17.157
1096.88	9.71808	7.09807	16.8098
1097.34	8.69642	6.41344	16.067
1097.79	7.76348	5.63463	15.0775
1098.25	6.87246	4.80079	13.9742
1098.71	6.08144	4.08726	12.8319
1099.16	5.45169	3.46175	11.5744
1099.62	4.5026	2.96271	10.2331
1100.08	3.66482	2.66692	8.81477
1100.53	3.04246	2.78969	7.40267
1100.99	2.7249	3.12095	6.09115
1101.45	2.8837	4.03769	5.03012
1101.9	4.50775	5.0246	4.21594
1102.36	6.20155	6.10999	3.75762
1102.82	9.59129	8.06906	3.71747
1103.27	10.8099	10.2089	4.32365
1103.73	12.2952	12.4026	5.30183
1104.18	11.1455	14.4982	6.60683
1104.64	9.10906	15.7671	8.14195
1105.1	6.14095	16.993	9.83663
1105.55	2.76275	17.6388	12.1332
1106.01	-1.47002	18.0122	14.519
1106.47	-4.0682	17.9934	16.6424
1106.92	-10.6226	17.7242	17.7349
1107.38	-10.3969	17.1811	18.1922
1107.83	-9.10778	16.5206	17.9804
1108.29	-7.13078	15.9063	17.3096
1108.75	-2.37511	15.7127	16.3415
1109.2	2.70391	14.8973	15.2364
1109.66	7.70636	13.4374	13.9804
1110.11	11.2391	11.0776	12.9339
1110.57	13.5744	8.27135	11.9278
1111.03	14.9875	5.61094	10.9004
1111.48	15.8825	3.70385	9.9052
1111.94	14.6976	2.54957	9.11768
1112.39	15.3836	-0.36178	8.70485
1112.85	16.3281	-1.70447	8.40412
1113.3	17.7492	-2.37837	8.5348
1113.76	18.8543	-1.41039	8.71513
1114.21	21.0229	0.46677	8.99408
1114.67	28.3957	3.00362	9.3992
1115.13	30.1347	5.16819	9.14474
1115.58	31.4666	7.50363	8.19299
1116.04	31.9559	10.1511	7.19794
1116.49	31.489	12.0778	6.24934
1116.95	29.8727	12.6036	5.52331
1117.4	27.3662	12.0605	5.41915
1117.86	24.5461	10.4843	5.34032
1118.31	21.5493	8.33132	5.26983
1118.77	18.6645	6.19815	5.15886
1119.22	16.3729	3.90875	5.06924
1119.68	14.4059	2.11865	4.98625
1120.13	12.4315	2.77191	4.65185
1120.59	10.6884	2.79242	4.45616
1121.04	9.30714	3.39249	3.98702
1121.5	8.39247	3.2795	3.45819
1121.95	8.05082	3.21179	2.96949
1122.41	8.62634	3.70465	2.55154
1122.86	10.863	4.09836	2.3368
1123.32	13.1696	4.10635	2.3547
1123.77	17.1845	4.32823	2.37955
1124.23	17.6823	4.61594	2.57352
1124.68	22.0257	4.78749	2.77127
1125.14	18.9903	4.92449	3.29993
1125.59	14.2448	4.73354	3.98741
1126.05	8.9405	4.73724	4.94947
1126.5	3.2118	4.64395	5.99296
1126.95	-1.54022	4.55156	6.95105
1127.41	-2.61291	4.38796	7.84384
1127.87	-2.0587	4.16219	8.58414
1128.32	-0.61824	3.90649	8.35117
1128.77	0.26373	3.57471	8.25715
1129.23	1.4209	2.67141	7.3647
1129.68	5.75754	1.76131	6.00323
1130.14	11.3325	0.56968	4.29578
1130.59	10.7117	-0.51765	2.97418
1131.05	6.12552	-1.5066	1.68775
1131.5	8.45951	-1.99633	1.14425
1131.95	11.7669	-2.83049	0.56408
1132.41	17.2034	-2.99719	0.02897
1132.86	19.5476	-3.00092	-0.52791
1133.32	21.3046	-2.91244	-0.93556
1133.77	22.3657	-2.36401	-1.30875
1134.22	23.5985	-2.31445	-1.61608
1134.68	23.8571	-2.66492	-1.78202
1135.13	13.5103	-2.8576	-1.74275
1135.59	12.841	-2.94294	-1.55933
1136.04	12.1382	-2.75973	-1.30182
1136.49	11.4256	-2.16375	-0.78282
1136.95	11.0439	-0.86941	-0.17347
1137.4	10.5845	-0.3192	0.7427
1137.86	10.2833	0.10068	2.43118
1138.31	10.9722	0.04978	4.17286
1138.76	12.8402	0.14355	5.72988
1139.22	18.8188	0.14251	7.03567
1139.67	21.8292	0.59752	7.72052
1140.12	22.1255	1.22367	7.887
1140.58	20.8003	1.95281	7.52795
1141.03	18.3734	2.66594	6.67737
1141.49	15.8011	3.26667	5.04622
1141.94	12.8751	3.64679	3.154
1142.39	9.78067	3.86627	0.43673
1142.85	6.87862	3.65887	-2.48629
1143.3	4.09671	3.19319	-5.63908
1143.75	1.39238	2.69848	-8.29072
1144.21	-1.29373	2.24512	-10.4539
1144.66	-4.27828	1.66177	-12.1799
1145.11	-6.924	1.13363	-13.1959
1145.57	-8.11219	0.79791	-12.6016
1146.02	-8.00718	0.07485	-11.2959
1146.47	-6.59913	-0.98375	-9.95253
1146.92	-4.21712	-2.36442	-8.58145
1147.38	-1.37411	-3.54917	-7.84229
1147.83	1.87988	-4.73209	-7.35439
1148.28	4.56508	-4.59021	-6.97832
1148.73	7.37378	-3.44893	-6.88797
1149.19	10.3419	-1.966	-7.13694
1149.64	12.9884	-0.51621	-7.67177
1150.09	15.2391	0.37536	-8.47209
1150.55	16.7718	1.41824	-9.35909
1151	17.5269	1.70028	-10.1189
1151.45	17.1483	2.02589	-10.4079
1151.91	15.4682	2.1969	-9.80417
1152.36	12.6123	2.42691	-8.64996
1152.81	10.6668	2.81399	-6.64881
1153.26	9.00083	2.98836	-3.5882
1153.72	7.89029	3.05517	1.39027
1154.17	7.35826	3.01707	3.81206
1154.62	7.46889	2.92571	5.32751
1155.07	7.5696	2.7097	5.87643
1155.53	7.4993	2.46435	5.667
1155.98	4.62088	2.00852	4.99681
1156.43	3.59529	1.55467	3.68316
1156.88	3.48113	0.93146	2.20324
1157.33	4.04481	1.35428	0.44773
1157.79	5.61484	3.62646	-1.24047
1158.24	8.11669	5.08522	-2.78192
1158.69	10.4533	5.94836	-3.89457
1159.14	11.6001	6.25252	-4.9518
1159.6	10.3381	6.383	-4.99064
1160.05	8.64656	6.28913	-4.79261
1160.5	8.67209	6.0703	-4.45339
1160.95	9.58628	5.7333	-3.84558
1161.41	10.1778	5.23816	-3.15635
1161.86	10.5277	4.3799	-3.25937
1162.31	10.3019	3.08233	-3.73701
1162.76	10.0171	1.24868	-4.36544
1163.21	9.81743	-0.70906	-5.05835
1163.66	9.32461	-2.62795	-5.74961
1164.12	8.88608	-4.48683	-6.50901
1164.57	8.69973	-6.07135	-7.13939
1165.02	9.46428	-7.47343	-7.28565
1165.47	11.5339	-8.81146	-7.30996
1165.92	14.4613	-8.9275	-7.2938
1166.37	16.1719	-8.16355	-6.74914
1166.83	16.4827	-7.24682	-6.13043
1167.28	15.051	-6.04666	-5.35765
1167.73	12.2156	-4.77208	-4.58233
1168.18	6.67287	-3.98202	-3.81912
1168.63	4.57814	-3.15959	-3.09609
1169.08	2.07851	-1.9507	-2.76076
1169.54	-0.30742	-0.59216	-2.36961
1169.99	-2.61886	0.74941	-2.03926
1170.44	-5.7152	2.15804	-1.87483
1170.89	-8.08739	3.38196	-1.84603
1171.34	-9.22432	4.26805	-1.86693
1171.79	-8.45593	4.75204	-2.04589
1172.24	-7.53707	5.13401	-2.18773
1172.69	-6.42639	5.44724	-2.42643
1173.14	-6.0552	5.66916	-2.40768
1173.6	-6.32577	6.37354	-2.33251
1174.05	-7.10656	7.21176	-1.94866
1174.5	-8.98107	7.68274	-1.75124
1174.95	-10.7314	7.61985	-1.63944
1175.4	-11.9124	7.24367	-1.67614
1175.85	-11.9385	4.51515	-1.97738
1176.3	-11.1893	1.28039	-2.58745
1176.75	-9.80165	-1.92049	-3.36081
1177.2	-8.54408	-4.23003	-4.27757
1177.65	-6.96415	-6.11343	-5.31458
1178.11	-5.58715	-7.87137	-6.41779
1178.55	-3.03144	-8.95122	-7.57873
1179.01	0.3594	-9.70659	-9.00195
1179.46	4.54767	-10.2524	-10.3182
1179.91	9.15874	-10.5934	-11.3605
1180.36	12.5841	-10.7522	-12.2987
1180.81	14.6606	-10.8684	-12.7017
1181.26	15.689	-11.2567	-11.4565
1181.71	16.2992	-11.625	-9.94681
1182.16	16.5373	-12.2421	-8.16017
1182.61	16.4223	-12.7742	-6.29729
1183.06	16.0914	-13.3106	-4.43734
1183.51	15.0954	-13.6077	-3.24712
1183.96	13.378	-13.5016	-1.93928
1184.41	11.2839	-12.1802	-0.87344
1184.86	8.97395	-10.7265	0.01068
1185.31	6.63461	-8.01095	0.67656
1185.76	4.74392	-5.19407	1.33404
1186.21	3.50295	-2.60182	1.44511
1186.66	2.3415	-1.08551	1.14722
1187.11	1.61946	-0.0061	0.59186
1187.56	1.06191	0.62622	-0.49302
1188.01	0.70464	0.8576	-1.6091
1188.46	0.47918	0.42616	-2.67612
1188.91	0.3565	-0.28615	-3.71579
1189.36	0.35969	-1.86165	-4.39078
1189.81	1.11078	-4.09503	-4.66277
1190.26	1.98543	-6.58253	-4.87028
1190.71	2.82802	-9.21304	-4.80958
1191.16	3.55988	-12.1144	-4.53161
1191.61	4.22359	-14.2814	-4.57684
1192.06	4.28169	-16.1114	-5.63433
1192.51	3.84729	-17.5308	-5.76431
1192.96	3.28563	-17.4136	-4.31639
1193.41	2.54796	-16.2072	-1.59483
1193.86	1.61022	-14.5595	1.03963
1194.31	0.56123	-12.4279	3.78506
1194.76	-0.8781	-10.6318	6.01265
1195.21	-2.43996	-7.91609	7.57136
1195.66	-3.95759	-4.9142	8.49625
1196.11	-5.32651	-2.00412	8.94315
1196.56	-5.88821	0.6356	8.89177
1197.01	-5.70107	3.10639	3.32631
1197.46	-5.56682	4.60968	2.29219
1197.91	-5.0427	5.64889	1.62024
1198.35	-4.33072	6.44216	0.61565
1198.8	-3.35288	6.93361	-0.47272
1199.25	-2.12672	7.19269	-1.88538
1199.7	-0.86037	7.3294	-3.13889
1200.15	0.48155	7.28867	-5.01202
1200.6	1.80545	7.0245	-6.9038
1201.05	3.15544	6.79437	-8.66411
1201.5	4.94565	6.52281	-10.2013
1201.95	6.84046	6.33814	-11.3293
1202.4	8.56168	6.01223	-11.8099
1202.84	10.1099	5.47193	-11.8456
1203.29	10.4062	4.73061	-11.5409
1203.74	10.7311	3.89173	-10.9543
1204.19	10.983	3.54032	-9.98343
1204.64	10.6208	6.2111	-8.53352
1205.09	9.90836	3.89546	-6.4706
1205.54	9.02736	0.60101	-4.21415
1205.99	8.28578	-3.03939	-1.59163
1206.44	7.71441	-6.11646	-1.85893
1206.88	7.97068	-7.77385	-1.59245
1207.33	8.08628	-7.92064	-0.69465
1207.78	8.09474	-1.76382	0.18057
1208.23	6.80267	-0.90557	0.886
1208.68	4.06202	-0.05816	1.50007
1209.13	2.51599	0.47727	1.6033
1209.57	1.93584	-0.75302	1.57274
1210.02	1.88176	-3.74961	1.22081
1210.47	1.99144	-5.67732	0.56439
1210.92	2.16215	-8.275	-4.23976
1211.37	1.90801	-9.96112	-3.90343
1211.82	2.1036	-10.6632	-3.70106
1212.26	2.36449	-11.165	-3.61526
1212.71	2.6326	-11.0916	-3.5753
1213.16	2.82068	-10.8117	-3.54115
1213.61	2.61513	-10.6189	-3.48459
1214.06	2.25545	-10.4117	-3.29787
1214.51	0.9414	-10.4386	-3.1075
1214.95	-0.2609	-10.7384	-2.85837
1215.4	-1.55743	-11.6421	-2.5751
1215.85	-2.79196	-12.7191	-2.01914
1216.3	-4.6182	-14.1493	-1.75732
1216.74	-6.20939	-15.3197	-1.42931
1217.19	-6.3626	-16.3211	-1.57181
1217.64	-5.27673	-15.9897	-0.42367
1218.09	-3.30285	-15.6608	0.84594
1218.53	0.61881	-14.8863	2.95672
1218.98	5.26789	-13.5903	4.3915
1219.43	10.2663	-9.87848	5.44564
1219.88	14.3254	-7.63858	5.85931
1220.33	17.8898	-4.97971	5.86651
1220.77	20.6916	-1.50704	5.46699
1221.22	22.8741	1.98151	4.60329
1221.67	23.7146	5.06789	3.50731
1222.12	23.5864	7.00862	2.1555
1222.56	22.6861	7.53483	0.46904
1223.01	21.1918	7.36068	-1.34818
1223.46	19.2255	6.79443	-3.56056
1223.9	16.8562	5.95298	-5.73339
1224.35	14.3918	5.04399	-7.69926
1224.8	11.2497	4.0868	-9.27419
1225.25	7.4338	3.07672	-9.89797
1225.69	5.05554	2.1936	-9.93681
1226.14	4.32288	1.49336	-9.33595
1226.59	4.15348	1.03103	-8.07783
1227.03	4.23621	0.98095	-6.50457
1227.48	4.36751	1.22839	-4.52686
1227.93	4.31218	1.78168	-2.64712
1228.38	4.3807	2.2947	0.81213
1228.82	4.58424	2.9639	4.22208
1229.27	4.7694	3.61109	7.23745
1229.72	4.9183	4.14882	8.82884
1230.16	5.01671	4.57018	9.8017
1230.61	5.09345	5.87479	10.0224
1231.06	5.00319	7.63326	9.33758
1231.5	5.00977	10.222	8.04382
1231.95	4.81797	11.7365	6.18446
1232.4	4.66998	12.7324	3.64861
1232.85	4.35952	12.4299	0.63871
1233.29	3.87845	9.15363	-3.0058
1233.74	3.23406	2.01347	-6.2951
1234.18	2.33298	-1.52547	-8.69055
1234.63	1.41086	-3.82233	-9.59186
1235.08	-0.09873	-3.8689	-9.26703
1235.52	-2.21098	-3.29725	-6.8578
1235.97	-4.51262	-2.45201	-3.39886
1236.42	-6.90389	-1.4252	0.32481
1236.86	-9.02708	-0.61988	3.32923
1237.31	-10.6886	0.43161	6.19574
1237.75	-12.2253	1.71962	8.74777
1238.2	-13.5803	3.07009	10.7842
1238.65	-14.5209	4.52811	12.3351
1239.09	-15.4571	6.01587	13.2818
1239.54	-16.0656	7.68769	13.6737
1239.99	-18.9272	9.34144	13.7322
1240.43	-19.2726	10.9088	13.4852
1240.88	-17.6224	11.7017	12.9871
1241.32	-14.2781	15.6881	12.5203
1241.77	-9.33328	15.1075	11.9645
1242.22	-3.95006	14.1034	11.567
1242.66	-3.41074	13.1534	11.3611
1243.11	-3.51741	12.5024	11.4469
1243.55	-3.94394	11.4548	11.9752
1244	-4.39907	10.1872	12.6017
1244.45	-4.43259	8.06969	13.2538
1244.89	-4.11479	4.51536	13.8387
1245.34	-2.33898	-1.00093	14.1752
1245.78	9.68294	-3.07841	13.4665
1246.23	11.952	-2.69973	12.3943
1246.67	13.8526	-0.76456	11.3031
1247.12	13.069	1.9405	10.3821
1247.56	12.5748	5.10026	9.7568
1248.01	12.8665	8.30215	10.5105
1248.46	13.1147	11.4218	12.0122
1248.9	13.9191	13.9409	13.7259
1249.35	15.6865	15.9113	15.8327
1249.79	20.2712	17.1904	17.3711
1250.24	21.4064	18.1224	18.6623
1250.68	22.38	17.8326	19.8933
1251.13	22.9496	17.0955	20.9537
1251.57	22.9925	12.0106	21.8922
1252.02	22.8534	8.47076	22.6184
1252.46	22.6551	5.79758	23.3353
1252.91	22.6769	3.62582	23.972
1253.35	23.1638	1.73577	24.6187
1253.8	24.2178	0.73034	25.2985
1254.24	25.285	0.64615	25.9668
1254.69	26.4356	2.01667	26.6449
1255.13	27.582	5.35928	27.4204
1255.58	28.7471	10.3818	28.3516
1256.02	30.0384	15.7304	29.5262
1256.47	31.299	18.1284	31.4278
1256.91	32.4778	18.6999	33.1142
1257.36	33.4535	20.525	34.7402
1257.8	34.5072	22.1217	36.1253
1258.25	35.3447	23.7305	36.9255
1258.69	35.2715	25.1663	36.8627
1259.14	34.6084	26.6029	36.3515
1259.58	34.0758	27.8975	35.3255
1260.03	33.4553	29.3258	33.6273
1260.47	32.9329	30.4072	31.8605
1260.92	32.3152	31.4552	30.058
1261.36	31.9392	32.5008	28.5061
1261.8	32.0686	33.6203	28.3729
1262.25	32.298	34.7659	28.7325
1262.69	32.756	36.1155	29.5544
1263.14	33.0827	37.3912	30.7622
1263.58	33.4231	39.0914	32.2482
1264.03	33.6336	41.2044	33.8545
1264.47	33.8977	43.28	35.4969
1264.91	33.8237	45.2214	36.8998
1265.36	33.1095	47.0159	37.5736
1265.8	31.5577	48.4975	37.8554
1266.25	30.5795	48.8325	37.9123
1266.69	30.1024	47.9135	37.8269
1267.14	30.2651	45.9701	38.7222
1267.58	31.9951	45.46	38.7583
1268.02	33.8778	45.5341	38.8928
1268.47	36.2463	45.4501	39.1667
1268.91	39.2078	44.9156	39.5061
1269.36	42.7097	43.8194	40.4272
1269.8	46.7388	42.4157	42.2094
1270.24	51.0155	41.2773	44.3223
1270.69	55.1717	40.2451	46.637
1271.13	59.2032	39.7913	49.1259
1271.57	62.8318	39.562	51.6474
1272.02	65.4355	39.3927	54.1949
1272.46	67.4653	39.5384	56.5055
1272.91	68.7491	37.978	58.9164
1273.35	69.2855	38.9188	61.3334
1273.79	69.1905	40.6704	63.7893
1274.24	68.0434	45.2372	66.8878
1274.68	65.6401	50.294	69.974
1275.12	63.3335	55.6082	72.9298
1275.57	62.424	59.7497	75.3827
1276.01	62.7997	64.4089	76.0682
1276.45	63.7752	68.1878	76.1567
1276.9	65.8964	71.2362	75.6284
1277.34	69.7865	73.8514	74.8238
1277.78	75.764	75.9999	74.2329
1278.23	86.243	77.8819	74.2251
1278.67	92.9995	79.8038	74.6
1279.11	98.48	80.9822	75.1422
1279.56	101.739	82.0057	76.1352
1280	103.442	83.0296	77.2183
1280.44	103.613	83.9823	78.2906
1280.89	102.793	85.1607	79.3906
1281.33	101.105	86.7102	80.8737
1281.77	98.9417	88.0345	82.6535
1282.21	91.459	89.7479	84.5261
1282.66	86.951	91.3973	86.5171
1283.1	84.1989	92.9631	88.4596
1283.54	83.4379	94.1754	90.0796
1283.98	83.914	94.2526	91.0954
1284.43	86.0814	92.383	92.1893
1284.87	94.1412	92.0349	93.0072
1285.31	100.124	91.8867	93.9122
1285.76	104.788	92.3264	94.9956
1286.2	108.39	93.4313	95.5423
1286.64	111.23	95.0212	97.4749
1287.08	113.23	96.5543	100.222
1287.53	114.302	98.0925	102.766
1287.97	114.651	98.1694	104.903
1288.41	115.123	97.9258	106.998
1288.85	116.587	97.9339	108.99
1289.3	114.067	99.0303	111.373
1289.74	116.366	99.0859	112.96
1290.18	119.044	99.3915	114.335
1290.62	123.255	99.8501	115.746
1291.07	128.053	101.04	117.323
1291.51	133.466	104.332	119.07
1291.95	139.258	108.041	121.911
1292.39	145.283	112.418	124.888
1292.83	151.412	117.202	128.259
1293.28	157.39	122.126	131.895
1293.72	163.525	126.673	135.944
1294.16	169.439	130.892	140.347
1294.6	175.385	134.552	144.715
1295.05	181.094	135.384	149.078
1295.49	186.445	138.355	153.097
1295.93	191.229	141.365	156.458
1296.37	195.258	143.988	157.438
1296.81	198.432	146.308	157.986
1297.25	200.668	148.437	158.236
1297.7	202.161	150.617	158.522
1298.14	203.043	153.197	158.634
1298.58	203.447	155.465	158.471
1299.02	203.359	157.565	158.377
1299.46	203.002	159.794	158.369
1299.9	202.214	162.622	158.538
1300.35	200.767	165.594	158.895
1300.79	198.442	168.906	159.632
1301.23	195.866	172.743	160.862
1301.67	193.497	176.252	162.116
1302.11	191.726	179.732	163.754
1302.55	193.271	182.841	165.932
1302.99	195.278	185.957	168.718
1303.44	198.583	189.546	172.017
1303.88	203.732	193.293	176.465
1304.32	210.289	197.073	181.3
1304.76	220.553	200.606	186.84
1305.2	229.319	203.673	193.096
1305.64	236.38	206.612	200.433
1306.08	242.417	209.273	208.242
1306.52	248.979	211.87	216.048
1306.97	255.509	214.286	223.159
1307.41	261.74	216.176	228.92
1307.85	266.823	218.219	233.614
1308.29	271.566	220.918	237.317
1308.73	276.143	225.448	239.411
1309.17	280.041	230.824	240.467
1309.61	283.605	236.798	243.634
1310.05	286.754	243.349	246.792
1310.49	289.532	250.213	250.355
1310.93	292.055	258.33	253.668
1311.37	294.085	266.536	256.957
1311.82	295.919	274.668	260.491
1312.26	297.522	280.751	264.467
1312.7	299.448	286.112	268.931
1313.14	303.006	291.093	273.724
1313.58	307.54	295.696	278.919
1314.02	311.604	300.124	285.502
1314.46	314.662	304.713	292.635
1314.9	316.924	309.362	299.53
1315.34	319.494	313.855	305.448
1315.78	322.77	318.383	311.097
1316.22	326.546	322.039	316.32
1316.66	333.342	325.734	321.318
1317.1	341.38	329.653	325.701
1317.54	349.963	335.424	329.687
1317.98	358.692	341.98	333.366
1318.42	368.589	349.296	336.82
1318.86	378.698	357.391	340.232
1319.3	388.631	366.134	343.966
1319.74	398.318	374.518	348.121
1320.18	406.968	382.709	352.555
1320.62	414.268	389.977	356.974
1321.06	421.909	396.391	361.858
1321.5	428.991	402.203	367.36
1321.94	435.673	407.601	373.625
1322.38	441.745	412.411	380.734
1322.82	444.987	416.769	389.255
1323.26	448.832	420.507	398.917
1323.7	453.505	423.58	409.49
1324.14	460.425	426.298	421.301
1324.58	467.856	428.024	433.336
1325.02	476.603	430.412	445.422
1325.46	486.398	434.072	456.301
1325.9	498.087	439.264	465.707
1326.34	511.44	446.351	474.232
1326.78	524.517	455.251	483.065
1327.22	535.048	466.369	491.794
1327.66	543.869	479.717	500.527
1328.1	551.715	494.088	509.646
1328.54	557.909	507.92	518.641
1328.98	563.066	522.37	527.533
1329.42	566.516	535.803	536.419
1329.86	568.905	548.256	545.245
1330.29	570.689	558.812	554.173
1330.73	575.161	567.936	562.667
1331.17	593.012	575.421	570.795
1331.61	609.051	581.444	579.073
1332.05	624.363	585.413	587.262
1332.49	638.676	591.254	595.433
1332.93	652.103	597.2	603.393
1333.37	664.482	602.883	611.226
1333.81	675.811	607.811	619.054
1334.25	686.048	612.084	626.979
1334.69	694.64	616.465	634.964
1335.13	702.768	621.177	642.81
1335.56	709.844	626.293	650.736
1336	715.71	633.452	658.727
1336.44	720.172	640.831	666.996
1336.88	723.062	648.005	675.416
1337.32	723.971	654.341	684.399
1337.76	721.408	660.054	694.45
1338.2	719.283	665.15	704.143
1338.64	718.223	669.702	713.197
1339.08	719.79	674.074	720.271
1339.51	723.994	678.784	725.516
1339.95	730.631	684.355	730.026
1340.39	739.366	690.795	734.04
1340.83	749.469	697.759	739.187
1341.27	759.989	705.935	744.283
1341.71	770.198	713.4	747.228
1342.14	779.055	719.225	750.292
1342.58	786.866	724.098	752.949
1343.02	793.873	728.118	755.244
1343.46	799.819	731.542	757.092
1343.9	804.451	738.406	758.994
1344.34	808.163	741.998	760.255
1344.77	808.799	744.671	761.264
1345.21	808.134	745.917	762.442
1345.65	806.606	744.872	764.19
1346.09	804.57	744.461	767.982
1346.53	803.736	747.648	772.627
1346.97	802.94	752.321	777.297
1347.4	802.061	758.745	780.785
1347.84	800.895	762.139	783.98
1348.28	799.998	765.831	786.307
1348.72	799.078	767.958	787.948
1349.15	797.961	766.52	788.579
1349.59	796.701	741.907	788.859
1350.03	795.168	757.298	787.501
1350.47	793.435	758.332	783.423
1350.91	791.164	759.658	781.264
1351.34	788.634	760.777	782.758
1351.78	785.497	761.746	779.263
1352.22	782.071	762.649	775.999
1352.66	778.238	763.456	767.748
1353.09	774.072	763.656	762.806
1353.53	769.23	763.239	758.9
1353.97	764.783	761.254	756.418
1354.41	760.073	757.108	756.174
1354.84	755.428	752.617	753.316
1355.28	750.194	748.378	746.638
1355.72	743.19	743.582	742.653
1356.16	734.52	738.335	720.032
1356.59	726.031	732.055	713.992
1357.03	717.509	724.296	709.448
1357.47	709.353	713.096	705.111
1357.91	702.047	701.354	700.629
1358.34	694.813	690.215	695.766
1358.78	687.581	679.309	690.208
1359.22	680.508	668.458	683.749
1359.66	673.627	657.936	676.748
1360.09	666.915	647.614	669.584
1360.53	660.267	637.635	662.234
1360.97	654.064	627.941	655.597
1361.4	647.928	618.452	648.232
1361.84	642.198	609.475	637.815
1362.28	636.852	601.039	628.829
1362.71	631.034	593.271	620.436
1363.15	622.251	586.165	612.166
1363.59	610.243	581.831	603.85
1364.02	596.495	577.786	595.73
1364.46	584.602	572.343	588.409
1364.9	574.788	567.281	581.031
1365.33	565.205	560.607	573.64
1365.77	555.011	550.138	565.448
1366.21	545.131	539.464	557.009
1366.64	535.785	529.149	547.696
1367.08	526.815	519.026	538.091
1367.52	518.393	509.281	528.107
1367.95	510.44	499.411	519.248
1368.39	503.358	489.442	511.377
1368.83	496.959	479.44	503.398
1369.26	491.235	469.364	494.774
1369.7	486.554	459.648	485.676
1370.13	482.31	450.178	476.203
1370.57	478.18	441.597	466.324
1371.01	473.904	433.373	456.271
1371.44	467.726	426.213	446.144
1371.88	459.587	420.043	435.026
1372.32	451.033	413.883	426.993
1372.75	442.415	405.55	418.226
1373.19	434.488	394.761	409.583
1373.62	429.087	383.382	400.529
1374.06	423.945	372.852	391.189
1374.5	419.159	363.613	381.167
1374.93	412.677	354.778	370.043
1375.37	404.265	346.32	359.031
1375.8	395.542	337.783	349.464
1376.24	386.642	329.424	341.044
1376.68	377.651	321.362	333.081
1377.11	368.789	313.741	325.305
1377.55	360.368	306.475	317.653
1377.98	351.7	299.681	310.754
1378.42	343.047	293.339	306.869
1378.85	334.348	287.38	304.336
1379.29	325.701	282.571	300.032
1379.73	317.069	278.205	300.102
1380.16	308.553	274.089	298.883
1380.6	300.026	270.172	295.265
1381.03	291.725	266.346	289.782
1381.47	283.757	261.48	281.701
1381.9	276.383	257.494	264.463
1382.34	269.325	253.243	255.54
1382.77	262.846	248.455	247.32
1383.21	256.871	243.383	239.689
1383.64	252.136	236.366	233.093
1384.08	247.896	229.323	227.715
1384.52	244.44	222.223	224.021
1384.95	240.231	215.212	221.768
1385.39	236.06	209.332	217.872
1385.82	230.93	203.656	213.829
1386.26	225.462	195.727	209.49
1386.69	219.599	189.172	204.979
1387.13	213.992	183.686	200.191
1387.56	208.38	179.196	195.282
1388	203.221	175.644	189.787
1388.43	197.687	172.815	183.774
1388.87	192.286	170.62	177.1
1389.3	187.022	168.54	169.342
1389.73	181.719	166.091	161.808
1390.17	178.271	162.958	154.489
1390.61	175.845	159.457	148.618
1391.04	173.15	155.258	143.774
1391.47	169.882	150.328	140.018
1391.91	166.134	145.105	137.264
1392.34	160.953	139.513	136.497
1392.78	154.754	133.559	136.401
1393.21	148.29	127.698	136.674
1393.65	141.618	121.801	135.793
1394.08	134.904	115.551	135.06
1394.52	128.431	109.083	134.253
1394.95	122.222	104.005	133.041
1395.38	116.345	99.7755	131.3
1395.82	111.064	97.2038	128.892
1396.25	105.78	96.0693	125.618
1396.69	100.798	95.7697	120.708
1397.12	96.2116	95.6915	114.986
1397.56	92.1818	95.1464	108.879
1397.99	89.0413	94.4583	102.978
1398.42	86.7883	93.2582	97.927
1398.86	85.3442	91.3801	93.2078
1399.29	85.5547	88.646	89.6206
1399.73	86.1603	84.5233	86.5035
1400.16	86.798	76.655	83.5647
1400.6	87.2218	72.8549	80.8088
1401.03	86.6384	69.2145	77.763
1401.46	84.9183	65.639	74.1738
1401.9	83.4683	62.6802	71.0712
1402.33	81.984	60.0973	68.2012
1402.77	80.1232	58.3275	65.85
1403.2	77.5843	57.819	63.9826
1403.63	74.6775	59.6867	63.0583
1404.07	70.8347	59.1727	62.6919
1404.5	66.2989	58.8026	62.5956
1404.93	60.9126	57.8734	62.7446
1405.37	53.2242	56.3473	62.9532
1405.8	45.8294	54.6326	63.0531
1406.23	38.0572	52.6823	62.7396
1406.67	28.3456	51.248	62.0383
1407.1	20.6672	49.0678	61.042
1407.54	17.9557	45.9513	59.4497
1407.97	16.6136	42.4587	57.4555
1408.4	17.0677	41.396	54.6836
1408.84	18.5816	41.0608	51.2175
1409.27	22.0783	40.586	47.0067
1409.7	25.6536	40.1922	42.2953
1410.14	29.1132	39.2193	37.3537
1410.57	31.305	38.0964	32.9457
1411	30.2042	37.3706	28.9128
1411.43	28.246	36.467	24.9606
1411.87	24.7065	35.8427	21.901
1412.3	20.2654	34.0185	19.9084
1412.74	15.2567	30.8334	18.3553
1413.17	12.0187	27.2718	17.1578
1413.6	9.14759	23.848	16.4271
1414.03	6.77784	20.2966	15.9314
1414.47	4.15057	16.6666	15.748
1414.9	0.0946	13.4789	16.0329
1415.33	-2.54023	10.1	17.0431
1415.77	-3.77075	7.13634	18.0835
1416.2	-3.41702	5.68149	18.9853
1416.63	-2.66047	5.60377	19.5143
1417.06	-1.07729	5.67393	19.2556
1417.5	1.72468	5.9526	19.0354
1417.93	4.62235	6.02343	18.5153
1418.36	7.4878	5.97137	17.6584
1418.79	9.22645	5.60343	16.6344
1419.23	8.50277	5.21439	15.343
1419.66	7.032	4.50814	13.77
1420.09	4.7657	3.80128	12.359
1420.53	1.79978	3.31981	10.9696
1420.96	-1.3285	2.91747	10.0962
1421.39	-4.92301	2.6738	8.41895
1421.82	-8.8785	2.21206	5.93867
1422.25	-10.6372	1.40537	4.40581
1422.69	-11.809	0.48537	3.65869
1423.12	-11.7822	-0.55603	3.25787
1423.55	-11.0075	-1.70201	3.02409
1423.98	-9.27639	-3.09732	2.82591
1424.42	-6.07607	-3.70081	2.74441
1424.85	-0.55695	-3.41498	3.27308
1425.28	1.35739	-3.72385	3.8483
1425.71	4.47919	-4.58938	4.45649
1426.14	4.59873	-5.07295	5.05091
1426.58	2.45308	-5.14831	5.35375
1427.01	-3.69139	-5.18644	4.49473
1427.44	-6.71587	-5.02448	3.56935
1427.87	-9.3744	-4.55993	3.18073
1428.3	11.0165	-3.83648	2.90638
1428.74	22.359	-2.8833	2.76363
1429.17	27.6327	-1.43242	2.76669
1429.6	26.9869	0.31039	2.91913
1430.03	21.348	1.64735	3.36129
1430.46	16.7062	2.07885	3.94406
1430.89	12.5149	2.26514	5.87002
1431.33	9.5431	2.23201	8.41644
1431.76	8.70877	2.4932	9.89343
1432.19	8.87489	1.97452	9.44204
1432.62	8.96566	0.62462	8.08265
1433.05	11.1767	-1.55503	6.20119
1433.48	14.2472	-3.87448	4
1433.92	17.7618	-5.95969	1.62186
1434.35	20.7876	-8.01555	-0.88195
1434.78	23.7018	-9.48512	-3.37267
1435.21	26.5613	-10.5545	-5.52248
1435.64	29.2687	-11.1748	-7.44948
1436.07	33.6307	-11.8943	-8.27789
1436.51	29.3585	-12.0971	-8.22422
1436.94	25.5481	-12.3933	-7.05606
1437.37	25.3268	-13.6852	-5.10581
1437.8	26.2783	-13.1297	-2.39948
1438.23	26.9095	-12.7843	-0.98405
1438.66	27.246	-11.9263	-0.35346
1439.09	27.1766	-10.6679	-0.27254
1439.52	27.2316	-9.04688	-0.60245
1439.95	27.3881	-6.68297	-1.52037
1440.39	27.6786	-5.18161	-3.04539
1440.82	28.0222	-4.33417	-4.8596
1441.25	28.5321	-3.56537	-6.83561
1441.68	29.5185	-3.76726	-8.52505
1442.11	30.6975	-4.29042	-5.83571
1442.54	31.6285	-5.52603	-6.764
1442.97	31.8135	-6.76456	-7.72279
1443.4	33.333	-7.62131	-8.66959
1443.83	34.8498	-8.43167	-9.65332
1444.26	35.0371	-9.26101	-10.75
1444.69	33.9919	-8.0829	-11.8096
1445.12	33.1714	-7.86119	-12.6723
1445.55	32.4337	-7.19279	-13.3987
1445.98	32.2452	-7.33788	-13.9262
1446.42	32.2487	-7.17409	-14.3737
1446.85	32.5859	-6.94779	-14.3303
1447.28	32.9455	-6.643	-13.5983
1447.71	34.1918	-6.34627	-12.3736
1448.14	35.9443	-7.00809	-10.5876
1448.57	37.8542	-7.29276	-8.33427
1449	40.0059	-7.37581	-5.58997
1449.43	41.9337	-6.71569	-2.51628
1449.86	43.9165	-6.39693	0.6207
1450.29	46.0052	-6.63672	3.30386
1450.72	48.3581	-6.75067	5.24025
1451.15	50.5795	-6.85254	6.57048
1451.58	52.5323	-6.20523	10.7026
1452.01	54.2491	-5.35441	11.7059
1452.44	55.6731	-5.04158	10.7864
1452.87	56.4962	-5.43409	8.17659
1453.3	56.8809	-5.71897	4.64983
1453.73	56.5351	-5.67884	1.05003
1454.16	56.0459	-4.89773	-2.39297
1454.59	55.5124	-4.69873	-5.16043
1455.02	55.597	-4.6327	-7.27542
1455.45	55.7114	-5.07296	-8.29734
1455.88	55.6451	-5.14227	-8.38079
1456.31	55.901	-4.769	-7.66746
1456.74	57.0249	-3.94258	-7.22492
1457.17	59.0493	-3.06372	-7.16444
1457.6	61.2877	-1.97307	-7.0653
1457.78	63.6431	-1.03122	-6.9141
1458.22	64.7432	-0.71712	-6.84779
1458.65	66.3211	-1.41564	-6.92996
1459.09	68.0654	-1.47657	-7.0172
1459.52	70.1043	-0.14354	-7.14718
1459.95	72.2007	-0.15906	-7.31351
1460.39	75.1043	-0.69612	-7.04941
1460.82	78.0191	-3.37995	-6.8816
1461.26	79.3622	-6.79984	-6.8304
1461.69	79.1417	-10.4109	-7.56394
1462.13	78.1202	-12.3529	-3.71743
1462.56	76.2515	-13.0068	3.86296
1463	73.6433	-10.6278	14.5886
1463.43	70.534	-9.86172	15.0325
1463.87	67.4655	-9.40858	12.5408
1464.3	62.716	-7.20605	4.24965
1464.74	59.1581	-5.04546	-1.91537
1465.17	57.9788	-1.8437	-6.88106
1465.6	57.7073	-1.87765	-10.1909
1466.04	58.0507	-2.08322	-12.5638
1466.47	59.3354	-1.78029	-12.4205
1466.91	61.0776	-2.2374	-11.7101
1467.34	63.5286	-3.15554	-10.3979
1467.78	66.3941	-3.42816	-9.02127
1468.21	69.0792	-3.43934	-7.87185
1468.64	70.8706	-4.48683	-7.33753
1469.08	73.0057	-5.14643	-7.01544
1469.51	74.3242	-6.16039	-6.835
1469.95	72.3127	-6.58276	-6.79224
1470.38	70.2955	-6.44365	-6.76069
1470.81	68.566	-4.56632	-6.83165
1471.25	67.1459	-3.39122	-6.92422
1471.68	64.5094	-2.04077	-6.88725
1472.12	61.993	-0.59745	-6.70361
1472.55	59.6318	-0.44882	-6.6344
1472.98	58.6589	-0.84294	-6.84124
1473.42	60.3637	-0.76791	-7.03515
1473.85	62.6469	-0.4746	-7.33991
1474.29	65.5279	0.98414	-7.61282
1474.72	68.3224	2.53684	-7.90923
1475.15	71.5814	5.04226	-8.18265
1475.59	74.6471	5.88201	-8.12795
1476.02	78.496	6.25134	-7.97831
1476.45	82.2298	6.69538	-7.46809
1476.89	85.421	6.29072	-7.10578
1477.32	87.7947	5.77529	-7.0076
1477.75	89.8164	4.72092	-6.79796
1478.19	90.6112	4.21639	-7.66487
1478.62	89.5455	3.4743	-9.02365
1479.05	87.9638	2.23744	-10.2853
1479.49	86.3123	2.33588	-10.3765
1479.92	85.1724	3.14975	-9.27328
1480.35	83.7689	4.66348	-8.20603
1480.79	82.5173	4.81378	-7.02602
1481.22	81.6123	3.40724	-5.84154
1481.65	81.1433	2.57161	-4.7692
1482.09	80.6079	2.86209	-3.64572
1482.52	80.1825	2.39649	-2.4269
1482.95	79.8949	2.65087	-1.10561
1483.39	80.0556	2.38821	0.08054
1483.82	80.3202	2.51648	1.17445
1484.25	80.3176	0.93924	2.05715
1484.69	77.6832	0.27995	2.50692
1485.12	73.4421	-0.69534	2.3542
1485.55	71.1047	-1.48552	1.58973
1485.98	72.7825	-1.35599	0.64275
1486.42	72.1702	-0.65996	1.2757
1486.85	68.465	0.44789	1.80977
1487.28	66.3239	0.46416	2.56947
1487.71	64.5553	0.14203	3.20413
1488.15	63.8316	1.02458	4.02377
1488.58	64.0863	0.91243	4.89039
1489.01	65.4066	1.05908	5.9311
1489.45	67.7908	2.20025	6.95577
1489.88	71.8952	2.04905	8.13588
1490.31	72.8768	2.05616	9.76522
1490.74	73.6452	2.06871	11.2962
1491.18	74.1259	2.23706	12.8034
1491.61	74.2808	2.53831	13.5979
1492.04	74.2557	4.03743	12.5196
1492.47	73.8828	4.97324	11.0359
1492.91	73.5633	5.73693	9.33929
1493.34	72.297	7.51842	7.61184
1493.77	70.6556	7.65868	6.04144
1494.2	69.3433	6.65836	4.3873
1494.64	69.9377	6.79338	2.86615
1495.07	71.4174	8.37767	1.70668
1495.5	73.5426	9.31976	0.86315
1495.93	76.2854	8.14753	0.57703
1496.36	79.0037	6.34382	0.8702
1496.8	82.1218	6.28998	1.61059
1497.23	84.9579	6.45646	2.46919
1497.66	96.312	6.84453	3.42986
1498.09	100.465	7.03881	4.2444
1498.52	102.43	7.89276	4.85387
1498.96	103.563	7.81958	5.27674
1499.39	103.116	9.88367	5.50959
1499.82	101.847	11.2877	5.63617
1500.25	100.302	13.9969	4.57425
1500.68	99.5421	16.4254	2.79979
1501.12	99.7831	17.8053	1.16347
1501.55	99.8963	18.4572	-0.40639
1501.98	99.894	18.4917	-1.54496
1502.41	99.7749	17.426	-1.99471
1502.84	98.9568	17.3771	-2.14142
1503.27	97.5302	16.9461	-1.43207
1503.7	96.3439	15.6543	-0.18184
1504.14	95.35	13.0905	1.2125
1504.57	95.1013	10.0805	2.82453
1505	95.8703	7.18494	4.22248
1505.43	97.0845	5.98256	5.75702
1505.86	97.8544	4.74673	7.18597
1506.29	97.239	5.56473	8.66722
1506.72	96.3693	8.28615	10.3203
1507.16	95.4777	13.2134	11.8872
1507.59	94.4745	18.0842	13.344
1508.02	93.959	21.6462	14.8856
1508.45	94.3583	24.3082	16.1621
1508.88	94.7575	27.2393	17.2265
1509.31	95.0017	30.0955	18.2875
1509.74	94.9421	32.5236	19.2693
1510.17	93.1183	32.8679	20.2269
1510.61	91.932	31.8017	21.1875
1511.04	91.9791	25.6674	22.0691
1511.47	92.7194	23.8888	22.8245
1511.9	94.0625	22.3162	23.473
1512.33	96.7947	21.1516	23.8285
1512.76	100.103	19.5457	24.2989
1513.19	102.912	17.4892	24.8167
1513.62	104.044	15.9887	25.3177
1514.05	104.606	14.1117	25.8554
1514.49	105.725	13.1015	26.2563
1514.92	107.421	13.6835	26.5003
1515.35	108.454	16.6046	26.7299
1515.78	109.052	19.1452	26.9833
1516.21	107.49	21.6556	27.1877
1516.64	106.318	24.2689	27.5786
1517.07	106.106	27.3329	28.4881
1517.5	105.95	30.9188	30.1059
1517.93	106.135	33.7049	31.2312
1518.36	107.066	35.6221	30.9818
1518.79	109.155	35.6284	30.4156
1519.22	112.583	35.6487	29.5235
1519.65	117.858	36.0537	29.0969
1520.08	123.508	36.5036	28.8502
1520.51	128.835	35.9883	29.6127
1520.94	134.33	36.6326	30.3407
1521.37	138.913	38.9409	31.3755
1521.8	142.876	39.4981	32.5031
1522.23	145.856	40.5474	33.7857
1522.66	147.385	40.7849	35.166
1523.09	146.834	42.3964	37.5712
1523.52	143.243	43.8434	40.1161
1523.95	138.487	43.7249	42.6395
1524.38	132.929	43.5565	44.3168
1524.81	128.539	43.5209	45.9642
1525.24	124.702	43.249	46.9402
1525.67	121.599	42.9181	47.7355
1526.1	119.847	42.6402	48.4954
1526.53	120.213	42.9102	49.071
1526.96	121.31	43.7074	49.8615
1527.39	122.671	46.1273	51.5102
1527.82	123.687	49.1431	53.6168
1528.25	125	50.7977	55.5187
1528.68	126.778	52.9687	57.2794
1529.11	129.095	55.1186	58.8848
1529.54	131.8	58.2677	60.0023
1529.97	134.496	60.544	60.9017
1530.4	137.135	62.3089	61.3508
1530.83	138.354	65.0257	61.5936
1531.26	137.042	64.3948	61.3621
1531.69	135.175	65.6847	60.7674
1532.12	134.189	66.0357	59.8277
1532.55	134.227	66.49	58.4961
1532.98	135.442	67.726	56.8022
1533.41	137.502	69.1058	55.097
1533.84	139.842	70.9675	53.5003
1534.27	143.421	72.943	52.7254
1534.7	146.984	73.8331	53.285
1535.12	150.656	74.9007	55.1207
1535.55	153.862	77.5612	57.5244
1535.98	156.665	79.6982	60.1412
1536.41	159.022	82.1484	62.9595
1536.84	160.716	83.7012	65.4084
1537.27	162.138	84.5114	67.1209
1537.7	162.931	85.2525	68.4681
1538.13	163.636	86.5495	69.7076
1538.56	163.019	86.9499	70.77
1538.99	162.057	88.11	72.111
1539.42	160.972	88.8476	73.4987
1539.84	159.988	88.8855	75.4025
1540.27	160.546	90.1961	77.3755
1540.7	161.134	91.07	79.3064
1541.13	162.273	92.3956	81.409
1541.56	163.893	94.9825	83.3723
1541.99	166.023	96.7493	85.1151
1542.42	169.223	99.1319	86.8835
1542.85	172.855	99.8371	88.7305
1543.28	176.815	101.033	90.7516
1543.7	180.663	102.255	93.1489
1544.13	182.624	103.262	96.8082
1544.56	184.23	103.979	100.506
1544.99	185.842	106.362	105.793
1545.42	187.457	108.907	108.309
1545.85	189.613	112.306	110.195
1546.28	191.759	113.494	111.564
1546.7	194.005	115.096	112.986
1547.13	196.49	116.285	114.509
1547.56	199.262	118.159	116.157
1547.99	202.467	120.125	118.115
1548.42	206.477	121.752	120.157
1548.84	210.274	124.165	122.565
1549.27	215.159	125.278	125.056
1549.7	225.024	126.907	128.188
1550.13	230.174	128.446	131.569
1550.56	232.807	131.18	135.302
1550.99	231.647	134.761	138.308
1551.41	238.542	138.359	139.717
1551.84	244.733	142.468	142.437
1552.27	253.423	146.91	146.091
1552.7	261.676	153.39	149.798
1553.13	266.577	158.072	153.518
1553.55	269.211	162.135	157.295
1553.98	270.104	164.985	160.85
1554.41	251.7	169.177	164.253
1554.84	256.775	172.086	167.694
1555.26	258.425	175.882	171.748
1555.69	260.615	179.966	175.79
1556.12	263.532	183.193	179.951
1556.55	266.965	184.374	183.998
1556.98	270.821	185.436	187.92
1557.4	275.141	187.395	191.224
1557.83	279.874	188.558	194.361
1558.26	284.98	191.634	196.843
1558.69	290.73	195.659	199.247
1559.11	297.125	201.357	201.555
1559.54	303.848	206.812	204.09
1559.97	310.863	213.387	206.77
1560.4	318.278	219.636	209.993
1560.82	325.652	226.101	213.698
1561.25	331.737	232.096	217.528
1561.68	337.568	238.075	221.277
1562.1	342.497	243.942	225.19
1562.53	345.641	249.879	229.486
1562.96	347.878	256.487	233.959
1563.39	349.472	262.151	238.633
1563.81	350.471	267.063	243.505
1564.24	351.331	271.317	248.706
1564.67	352.14	273.424	253.014
1565.1	352.242	275.24	256.981
1565.52	352.28	277.649	260.805
1565.95	352.176	280.264	265.085
1566.38	353.03	283.885	270.067
1566.8	355.609	287.892	276.068
1567.23	360.154	291.93	282.518
1567.66	367.23	295.785	289.178
1568.08	376.652	298.966	296.253
1568.51	387.646	302.797	303.486
1568.94	400.715	306.433	310.726
1569.36	412.704	310.912	318.09
1569.79	422.535	316.727	325.488
1570.22	431.605	323.696	333.037
1570.64	440.202	330.629	340.609
1571.07	448.219	339.987	347.825
1571.5	456.283	347.788	354.608
1571.92	464.518	356.009	360.663
1572.35	472.704	363.129	365.021
1572.78	479.915	369.573	368.725
1573.2	486.17	377.03	372.288
1573.63	491.253	385.298	375.83
1574.06	496.461	393.378	379.859
1574.48	502.184	401.321	385.101
1574.91	508.368	409.753	391.012
1575.33	515.703	417.149	397.191
1575.76	523.765	423.91	403.772
1576.19	532.298	430.248	410.27
1576.61	540.733	436.655	416.895
1577.04	548.442	442.262	420.309
1577.46	554.385	447.058	426.801
1577.89	558.96	452.814	435.507
1578.32	563.037	458.438	444.81
1578.74	568.036	464.347	454.038
1579.17	573.332	468.416	462.519
1579.6	578.902	474.069	472.18
1580.02	585.955	478.713	484.478
1580.45	591.949	483.557	492.356
1580.87	594.959	491.607	497.989
1581.3	597.118	497.769	499.69
1581.73	598.704	503.632	498.435
1582.15	600.785	507.667	501.51
1582.58	601.524	511.02	504.397
1583	602.256	513.669	507.105
1583.43	603.227	516.991	507.975
1583.85	604.47	519.055	510.104
1584.28	607.051	518.495	517.433
1584.7	610.064	522.323	525.648
1585.13	613.553	526.273	533.746
1585.56	617.919	530.7	540.164
1585.98	622.323	535.488	549.893
1586.41	626.566	540.542	557.956
1586.83	629.961	546.746	563.534
1587.26	633.19	552.129	566.105
1587.68	634.667	557.573	566.334
1588.11	635.62	564.764	561.958
1588.53	636.349	567.785	559.635
1588.96	636.781	569.652	557.375
1589.38	637.028	570.165	554.99
1589.81	637.697	567.123	551.41
1590.24	638.146	562.813	545.749
1590.66	638.438	556.902	539.154
1591.09	638.422	547.057	534.136
1591.51	638.357	542.23	529.432
1591.94	638.458	538.181	525.843
1592.36	638.276	535.731	524.742
1592.79	637.673	532.2	526.565
1593.21	636.623	529.262	529.424
1593.64	633.315	525.617	531.531
1594.06	629.669	522.865	532.529
1594.49	625.33	520.164	532.12
1594.91	620.796	518.906	530.509
1595.34	617.727	519.195	526.277
1595.76	613.981	518.272	520.694
1596.18	609.015	517.638	514.377
1596.61	602.665	515.81	508.404
1597.03	593.748	512.988	501.954
1597.46	584.707	509.348	495.325
1597.88	576.899	504.006	488.683
1598.31	570.615	498.33	481.952
1598.73	565.031	492.462	475.706
1599.16	559.307	485.677	470.192
1599.58	552.97	480.385	466.229
1600.01	547.012	476.273	463.534
1600.43	540.725	472.125	461.875
1600.85	534.56	470.284	460.858
1601.28	528.828	466.763	460.455
1601.7	523.835	462.252	460.665
1602.13	519.872	458.073	460.903
1602.55	517.375	454.287	458.704
1602.98	515.869	451.131	455.913
1603.4	515.549	448.784	452.416
1603.83	515.926	447.219	448.728
1604.25	512.409	445.619	444.294
1604.67	508.126	442.984	439.294
1605.1	504.986	437.592	433.09
1605.52	502.197	432.853	426.724
1605.94	500.404	433.115	420.504
1606.37	498.951	432.282	415.055
1606.79	493.905	430.552	410.253
1607.22	488.41	426.272	406.065
1607.64	483.582	421.026	403.037
1608.06	478.762	413.429	400.667
1608.49	474.512	407.585	399.353
1608.91	462.913	404.27	398.834
1609.34	450.364	404.884	399.174
1609.76	441.328	403.551	399.917
1610.18	438.111	399.978	401.032
1610.61	438.822	395.806	401.334
1611.03	439.532	392.524	401.015
1611.46	440.242	389.852	401.241
1611.88	440.952	387.292	404.252
1612.3	441.661	385.354	404.928
1612.73	442.37	383.021	403.894
1613.15	443.229	382.677	401.165
1613.57	444.061	383.385	397.533
1614	444.641	384.051	393.737
1614.42	445.596	384.517	390.814
1614.84	446.801	385.039	388.224
1615.27	447.961	385.595	386.294
1615.69	449.232	385.72	385.179
1616.11	450.444	385.349	384.573
1616.54	450.857	385.865	384.78
1616.96	449.484	386.403	385.212
1617.38	447.71	388.46	385.676
1617.81	445.452	387.748	385.662
1618.23	442.768	386.234	385.63
1618.65	439.753	384.599	385.205
1619.08	436.688	382.28	384.326
1619.5	432.967	381.269	382.756
1619.92	428.151	381.188	380.801
1620.34	421.996	380.312	378.743
1620.77	416.639	380.251	376.445
1621.19	411.312	378.867	373.695
1621.61	405.671	375.701	371.747
1622.04	398.209	371.152	370.024
1622.46	391.44	367.26	367.864
1622.88	384.862	361.669	365.296
1623.3	379.261	354.86	362.282
1623.73	373.401	349.215	358.36
1624.15	367.716	344.052	354.076
1624.57	361.695	338.308	349.328
1624.99	355.949	331.828	344.054
1625.42	350.168	325.175	338.284
1625.84	343.738	317.936	331.978
1626.26	339.458	309.701	325.176
1626.69	335.736	301.714	317.956
1627.11	332.308	294.225	310.072
1627.53	327.49	286.545	301.901
1627.95	321.868	279.736	292.878
1628.37	315.531	273.831	283.065
1628.8	308.548	267.327	272.75
1629.22	301.125	260.557	262.111
1629.64	292.172	252.378	251.303
1630.06	282.245	244.981	240.406
1630.48	271.639	237.016	230.404
1630.91	260.846	229.653	220.14
1631.33	251.337	221.5	210.359
1631.75	241.457	213.537	201.001
1632.17	231.622	205.177	192.131
1632.6	221.835	197.908	183.883
1633.02	212.521	189.692	176.85
1633.44	203.538	180.922	170.625
1633.86	195.179	172.523	164.647
1634.28	188.915	164.349	158.972
1634.71	183.485	155.403	153.406
1635.13	185.599	147.831	147.981
1635.55	175.09	141.421	142.457
1635.97	163.998	135.103	137.27
1636.39	152.799	129.993	132.353
1636.82	141.174	127.102	127.66
1637.24	130.83	123.29	123.196
1637.66	122.782	119.057	118.966
1638.08	117.064	114.852	114.961
1638.5	112.951	109.842	111.236
1638.92	110.796	106.44	107.873
1639.35	109.917	102.694	104.734
1639.77	111.87	99.4608	102.073
1640.19	109.887	95.8346	99.589
1640.61	103.165	92.9232	97.2922
1641.03	99.4944	90.5924	94.9881
1641.45	95.5941	88.0942	92.4847
1641.87	91.4394	85.4849	89.7956
1642.3	87.5251	83.4123	87.1591
1642.72	83.785	81.2669	84.4013
1643.14	80.3366	79.707	81.6312
1643.56	75.3685	77.7541	78.8762
1643.98	70.6519	75.8935	75.867
1644.4	66.138	73.8172	73.0042
1644.82	63.2839	71.7226	70.2017
1645.24	60.9677	69.8218	67.5641
1645.66	58.853	66.3776	65.2584
1646.09	59.6105	63.6366	63.7901
1646.51	60.9939	61.0327	63.3488
1646.93	62.8772	58.0493	63.8167
1647.35	64.7535	56.1317	64.4712
1647.77	65.0257	54.6503	65.0629
1648.19	65.4099	52.3545	64.8998
1648.61	65.4096	49.7454	64.2066
1649.03	64.8557	47.6788	63.3132
1649.45	63.8293	45.5054	61.7534
1649.87	62.5146	44.7202	59.6649
1650.29	60.1849	43.5994	57.229
1650.72	57.701	41.7509	54.4748
1651.14	55.2798	40.4945	51.6194
1651.56	54.1833	40.9321	48.6002
1651.98	53.0846	42.1149	45.5967
1652.4	52.5895	43.5272	42.5535
1652.82	52.1865	44.459	39.707
1653.24	50.457	45.4131	36.878
1653.66	46.8124	46.5148	34.6186
1654.08	42.9824	46.4221	33.0733
1654.5	38.8301	46.734	31.9153
1654.92	34.9167	46.8907	31.032
1655.34	29.9285	49.0335	30.1947
1655.76	25.1703	48.7483	29.4156
1656.18	20.7888	47.582	28.6484
1656.6	16.9824	45.7072	27.6325
1657.02	14.0119	45.1708	26.7033
1657.44	11.9106	43.3388	25.948
1657.86	11.1943	41.2719	25.215
1658.28	10.9831	38.3241	24.5955
1658.7	11.4657	32.9334	24.0739
1659.12	12.6552	30.016	23.633
1659.54	14.3011	28.7439	23.2087
1659.96	16.2723	28.0884	22.8264
1660.38	17.7721	27.98	22.6008
1660.8	19.4236	26.9995	22.1455
1661.22	21.4645	26.5604	21.6689
1661.64	23.4024	27.0146	20.8866
1662.06	24.8458	27.4433	20.4984
1662.48	26.3227	26.2402	20.2212
1662.9	26.4916	24.5852	20.0302
1663.32	25.633	19.4532	20.1736
1663.74	24.6184	17.3239	19.9582
1664.16	23.5991	15.2793	19.5322
1664.58	22.9165	13.1027	19.0668
1665	22.1932	9.81761	18.115
1665.42	21.968	7.33843	17.5862
1665.84	21.6649	6.39972	16.9862
1666.26	21.4689	5.55081	16.5714
1666.68	21.212	4.67819	16.062
1667.1	20.7957	5.3925	15.6227
1667.52	20.4019	6.86067	14.9307
1667.94	18.4911	7.87073	13.5704
1668.36	16.0079	9.33172	11.7044
1668.78	13.4583	10.5028	10.0209
1669.2	11.8582	11.8132	8.60711
1669.61	10.5365	12.6818	7.93835
1670.03	9.43806	12.8161	8.5651
1670.45	8.52823	11.3961	9.47207
1670.87	7.83188	10.041	10.4843
1671.29	7.52573	8.57543	11.6317
1671.71	7.48824	6.93715	11.7747
1672.13	7.5657	5.61337	11.8302
1672.55	7.28642	-0.35402	11.3897
1672.97	6.47536	-1.58041	10.8786
1673.39	4.32783	-2.91918	10.2399
1673.81	3.29458	-2.99652	9.54875
1674.23	3.02047	-2.67907	8.83186
1674.64	2.43062	-1.65294	8.11604
1675.06	1.53726	0.75713	7.44586
1675.48	0.35928	3.28047	6.74262
1675.9	-1.20658	4.92182	6.40246
1676.32	-3.04803	6.88078	6.03584
1676.74	-4.56581	7.36234	5.75135
1677.16	-4.88323	6.40157	5.45754
1677.58	-3.627	4.90555	5.35438
1678	5.58486	2.94609	4.94525
1678.41	8.28331	0.21367	4.3541
1678.83	10.9538	-5.31011	3.78281
1679.25	12.7337	-8.03137	2.79132
1679.67	13.9963	-9.17901	1.8718
1680.09	14.2785	-10.4591	1.00639
1680.51	6.5722	-10.2095	0.14404
1680.92	3.81905	-10.9306	-0.5314
1681.34	0.60034	-10.6586	-1.17045
1681.76	-3.27899	-10.3487	-1.35904
1682.18	-8.64744	-10.1483	-1.4554
1682.6	-13.391	-8.76005	-1.31737
1683.02	-17.4396	-7.18606	-0.32203
1683.43	-20.0858	-5.17781	1.26366
1683.85	-21.9391	-2.01201	2.75645
1684.27	-22.5601	0.44883	4.37578
1684.69	-22.4325	2.30213	4.29827
1685.11	-20.8214	2.89408	3.37061
1685.53	-18.332	2.73976	2.08456
1685.94	-14.9914	3.38029	0.47783
1686.36	-10.9227	3.46535	-1.49695
1686.78	-6.36069	2.62608	-3.40611
1687.2	-2.40488	1.18164	-5.06758
1687.62	1.9558	0.94191	-6.80848
1688.03	6.34907	0.5652	-8.28649
1688.45	8.94765	-0.09697	-9.4132
1688.87	11.1054	-2.58455	-9.82381
1689.29	12.3625	-5.31602	-8.72024
1689.7	12.3665	-6.82076	-6.24899
1690.12	11.3409	-7.92389	-2.35668
1690.54	9.49374	-7.76093	0.24857
1690.96	7.27054	-6.72879	0.99835
1691.38	5.32284	-4.0547	0.13636
1691.79	3.64743	-1.94935	-0.91101
1692.21	2.45284	0.59824	-9.2303
1692.63	3.09441	2.96773	-8.37812
1693.05	4.75668	4.92018	-4.48834
1693.46	6.63718	6.88305	-3.20758
1693.88	6.51607	8.3642	-2.43385
1694.3	5.8435	10.3039	-1.90241
1694.72	4.83193	10.457	-1.32965
1695.13	4.14721	10.4713	-0.97322
1695.55	4.12046	10.1746	-0.82128
1695.97	3.74205	9.28895	-1.08307
1696.39	3.34494	5.09727	-1.48958
1696.8	2.53698	2.04032	-1.98981
1697.22	0.84521	-1.40912	-2.42409
1697.64	-1.80491	-5.13282	2.04605
1698.06	-4.55904	-7.08062	0.38211
1698.47	-7.44518	-9.28877	-1.60205
1698.89	-9.81061	-11.3914	-3.24352
1699.31	-11.9576	-13.4575	-4.58211
1699.72	-14.7925	-15.0068	-5.44883
1700.14	-17.0079	-15.6801	-6.00787
1700.56	-18.2241	-15.6651	-6.22234
1700.97	-17.4868	-14.6485	-6.41914
1701.39	-15.6513	-9.75126	-6.24062
1701.81	-12.5144	-8.03504	-5.14359
1702.23	-8.14787	-5.67615	-0.71793
1702.64	-3.59818	-2.62334	-2.31617
1703.06	0.0261	0.36745	-4.70484
1703.48	3.69164	2.86927	-6.41545
1703.89	6.87859	4.94154	-7.80054
1704.31	9.51464	7.12038	-8.21776
1704.73	11.5494	7.51977	-8.13923
1705.14	12.6676	7.48107	-2.99897
1705.56	12.7663	5.86333	-1.16167
1705.98	11.6279	3.30653	0.09993
1706.39	8.52747	2.27078	1.19722
1706.81	2.63301	1.84713	2.21393
1707.23	0.90185	0.78218	3.14202
1707.64	-0.64228	0.49025	3.8399
1708.06	-1.71159	-1.04414	4.43188
1708.48	-2.58481	-2.08037	4.7971
1708.89	-3.37425	-2.75039	4.98906
1709.31	-4.00306	-3.53076	4.96783
1709.72	-4.41924	-3.15254	4.30618
1710.14	-4.74403	-3.3536	3.54899
1710.56	-4.90931	-2.78872	2.5966
1710.97	-4.9724	-2.34609	1.94222
1711.39	-4.96241	-2.66584	2.16638
1711.81	-4.66629	-3.71464	3.15925
1712.22	-4.22995	-5.31574	4.39469
1712.64	-4.11898	-6.58212	5.76301
1713.05	-4.24602	-8.51524	6.69367
1713.47	-4.37503	-9.73331	6.17049
1713.89	-4.02298	-10.4789	5.47593
1714.3	-3.23672	-10.114	4.60953
1714.72	-2.48379	-8.52246	3.64188
1715.13	-1.40288	-6.99832	2.69311
1715.55	-0.72139	-5.29499	2.0696
1715.97	-0.44379	-2.76427	1.93297
1716.38	-0.7444	0.14364	2.01294
1716.8	-1.23877	2.58643	2.18184
1717.21	-1.74375	4.21309	2.35644
1717.63	-2.27673	5.74549	2.55124
1718.05	-2.72801	7.17112	2.65983
1718.46	-2.95816	8.6387	2.75577
1718.88	-2.99818	8.42062	2.29757
1719.29	-3.32035	7.60569	1.69341
1719.71	-3.03555	6.53727	0.83558
1720.12	-1.84678	4.50762	-0.01343
1720.54	0.03688	2.53505	-0.78933
1720.95	0.66051	0.47235	-1.50795
1721.37	1.73554	-1.48246	-2.11676
1721.78	3.04238	-3.63853	-2.24539
1722.2	4.22254	-4.44751	-2.19882
1722.62	5.16474	-5.73822	-1.80777
1723.03	5.69985	-6.2447	-1.20553
1723.45	6.0437	-6.7045	-0.17021
1723.86	5.63177	-6.68314	1.36882
1724.28	5.06721	-6.01029	2.92903
1724.69	4.28172	-5.31077	4.48556
1725.11	3.78052	-4.51014	5.89818
1725.52	5.42862	-2.86749	6.79397
1725.94	7.15592	-0.70309	7.00641
1726.35	11.9835	2.43111	6.81173
1726.77	14.2124	4.54628	6.14581
1727.18	15.3884	5.99959	5.09537
1727.6	13.3123	7.33328	3.10013
1728.01	11.5308	8.06465	0.91364
1728.43	11.4722	9.12796	-1.27038
1728.84	12.1543	9.4664	-3.0672
1729.26	13.0042	8.83354	-4.10868
1729.67	15.1231	7.74381	-5.01259
1730.09	16.1751	5.77108	-5.77174
1730.5	15.0778	3.58858	-6.25123
1730.92	12.4529	-1.76656	-6.72332
1731.33	8.64713	-4.25902	-6.84577
1731.75	2.55787	-6.11145	-6.83106
1732.16	1.57667	-7.17704	-6.723
1732.57	4.22987	-6.16702	-6.57789
1732.99	4.10641	-4.07031	-6.2723
1733.4	-0.7077	-3.92247	-6.15136
1733.82	4.74548	-3.76133	-6.1016
1734.23	8.76332	-3.79303	-6.07268
1734.65	11.6125	-3.01383	-6.20166
1735.06	12.8839	-2.43761	-6.43269
1735.48	11.4845	-1.29827	-6.67248
1735.89	9.06864	1.21185	-6.73283
1736.31	8.17962	3.72452	-6.30682
1736.72	7.5672	5.79781	-5.3108
1737.13	9.23488	6.97617	-4.50022
1737.55	8.35761	6.58815	-3.64208
1737.96	7.59829	5.31901	-2.79146
1738.38	6.84524	2.66639	-2.11015
1738.79	7.10139	1.86498	-2.21228
1739.2	7.50143	0.61423	-2.79037
1739.62	8.10408	0.02745	-3.37558
1740.03	8.79364	-1.38841	-3.60047
1740.45	9.48196	-3.14335	-3.62166
1740.86	9.9628	-3.4741	-2.7755
1741.28	10.2491	-4.21444	-1.99018
1741.69	10.3846	-5.15829	-0.99601
1742.1	10.4909	-5.96613	0.29548
1742.52	10.4141	-6.4285	1.66858
1742.93	10.0435	-7.5473	3.31229
1743.35	9.39071	-8.30452	5.47402
1743.76	8.37683	-8.97758	7.56828
1744.17	7.13492	-9.00793	9.4189
1744.59	5.52314	-8.46292	11.0743
1745	3.64623	-6.65603	11.8395
1745.41	1.47313	-4.40809	12.0122
1745.83	-1.68525	-1.52507	11.6783
1746.24	-4.8565	2.73333	10.9349
1746.65	-7.40285	4.04438	9.17058
1747.07	-7.13132	4.3152	7.13705
1747.48	-6.32405	4.97678	4.9178
1747.9	-4.99095	4.7848	2.73639
1748.31	-3.38242	3.37773	1.00481
1748.72	-1.96705	-1.31089	-0.56132
1749.14	-0.24368	-2.00703	-1.8212
1749.55	1.58215	-1.98864	-2.80253
1749.96	3.79754	-0.94346	-3.60164
1750.38	5.98659	1.48056	-4.24208
1750.79	8.098	2.87103	-4.69531
1751.2	9.94541	3.00864	-5.00757
1751.61	11.5455	1.68865	-5.14114
1752.03	12.7894	1.12105	-5.23175
1752.44	13.5631	0.6497	-5.17565
1752.85	14.1027	0.13215	-5.03742
1753.27	13.8724	0.0591	-4.84319
1753.68	13.29	-1.10838	-4.58075
1754.09	12.5392	-0.80325	-4.19478
1754.51	11.7826	-0.59657	-3.77842
1754.92	11.6136	-0.99516	-3.27797
1755.33	12.2353	-1.05811	-2.82588
1755.75	12.5946	-0.64885	-2.32926
1756.16	12.9618	0.24428	-1.86692
1756.57	11.6647	0.93836	-1.4836
1756.98	10.1138	0.75871	-1.06414
1757.4	8.88448	-0.06145	-0.65495
1757.81	8.0669	-1.18952	-0.12649
1758.22	9.49448	-2.78897	0.43221
1758.63	10.9338	-4.08401	1.06927
1759.05	12.5363	-5.58686	1.89408
1759.46	14.1629	-7.72597	2.78334
1759.87	14.7456	-9.42822	3.85242
1760.29	14.9571	-9.96999	5.38268
1760.7	14.8171	-9.94027	6.85225
1761.11	14.5742	-8.86612	8.36973
1761.52	14.4652	-6.06278	9.91719
1761.93	14.0208	-4.74335	11.7029
1762.35	13.8048	-3.29089	13.3221
1762.76	13.6141	0.05401	13.8504
1763.17	12.9407	0.33172	10.8373
1763.58	11.603	0.23017	9.61141
1764	9.11346	-0.32293	8.65262
1764.41	5.29493	-1.07199	7.39472
1764.82	1.05894	-1.87503	5.81323
1765.23	-2.8151	-2.78415	4.30524
1765.65	-5.50885	-4.30024	2.97474
1766.06	-7.00101	-5.45865	1.83336
1766.47	-7.20344	-7.25984	1.00714
1766.88	-6.41701	-9.11212	0.602
1767.29	-4.59836	-10.8497	0.47457
1767.71	-2.46067	-11.0764	0.46925
1768.12	-0.77344	-10.7922	0.50725
1768.53	1.44869	-9.52268	0.44499
1768.94	4.16912	-7.89585	0.31132
1769.35	7.09188	-6.33944	0.05158
1769.77	10.1775	-4.0205	-0.33963
1770.18	13.2728	-0.28963	-0.68462
1770.59	16.8989	2.18881	-1.03154
1771	19.6216	4.51735	-1.4164
1771.41	18.2799	5.99506	-1.67867
1771.82	16.0092	7.73379	-1.67637
1772.24	13.1305	9.08351	-1.1877
1772.65	11.3814	9.11427	-0.61014
1773.06	9.64803	7.50588	-0.08172
1773.47	7.05694	6.02805	0.3823
1773.88	1.23335	2.94414	0.77286
1774.29	-2.74416	-0.50361	0.11197
1774.71	-5.63676	-3.71696	-1.01604
1775.12	-7.28454	-5.51928	-1.29624
1775.53	-8.00013	-7.29565	-0.43561
1775.94	-7.71324	-8.23509	0.47351
1776.35	-6.76511	-10.6346	0.94518
1776.76	-5.02103	-11.8803	0.48261
1777.17	-3.131	-13.3618	-0.48103
1777.58	-1.3519	-14.636	-1.60841
1778	0.09612	-15.5253	-2.81093
1778.41	0.92498	-14.3259	-4.09801
1778.82	1.29629	-14.2222	-5.1102
1779.23	0.98591	-13.8804	-6.31327
1779.64	-0.3435	-13.0005	-7.29716
1780.05	-1.88498	-11.1918	-7.77924
1780.46	-3.50534	-9.99736	-7.96148
1780.87	-5.22606	-8.97259	-3.5949
1781.28	-5.66155	-7.69084	-3.83974
1781.7	-4.94432	-6.48513	-3.88474
1782.11	-4.06453	-5.55614	-4.0231
1782.52	-3.20899	-3.34996	-4.23817
1782.93	-3.4434	-0.69406	-4.68467
1783.34	-1.73044	1.97102	-5.16458
1783.75	1.03334	4.05849	-5.72956
1784.16	4.29694	5.31505	-6.59383
1784.57	7.46527	6.30943	-8.14997
1784.98	10.7874	7.92885	-9.60317
1785.39	13.6515	8.92941	-11.0645
1785.8	16.4125	9.00923	-12.4105
1786.22	19.8492	8.61706	-13.5995
1786.62	22.6319	8.05913	-14.5747
1787.04	24.5338	7.13958	-14.589
1787.45	24.3866	6.38229	-14.318
1787.86	23.457	5.55538	-13.5852
1788.27	21.937	4.34738	-12.5514
1788.68	19.6458	4.3188	-11.0386
1789.09	17.1327	4.23397	-9.18219
1789.5	14.7249	3.4809	-7.19108
1789.91	12.5562	3.87153	-5.16344
1790.32	10.6754	3.30817	-3.50889
1790.73	9.68548	2.43208	-2.11485
1791.14	9.28852	1.7108	-1.02704
1791.55	9.65736	-0.67491	-0.51691
1791.96	10.2612	-2.04362	-0.47476
1792.37	10.9299	-2.53207	-0.47792
1792.78	11.3344	-2.9951	-0.77171
1793.19	11.7327	-3.61069	-1.23579
1793.6	13.2551	-4.42816	-1.83341
1794.01	15.2349	-4.34973	-2.47947
1794.42	16.4103	-3.54298	-2.91813
1794.83	16.0451	-2.29724	-3.40951
1795.24	15.2219	-1.25275	-3.94858
1795.65	14.4615	-1.51754	-4.1461
1796.06	13.697	-1.93488	-4.36079
1796.47	13.1677	-2.57579	-4.11649
1796.88	10.8916	-3.2573	-4.71273
1797.29	7.9836	-3.99285	-7.02135
1797.7	5.36683	-5.39727	-8.66685
1798.11	4.12137	-5.76585	-9.38275
1798.52	2.92691	-5.65907	-9.61913
1798.93	1.84451	-5.38946	-9.4541
1799.34	1.10793	-3.99637	-8.90341
1799.75	0.68176	-3.90619	-8.06801
1800.16	1.63303	-2.16997	-6.43693
1800.57	3.54904	-1.5142	-4.62756
1800.98	5.20128	-2.21516	-2.91055
1801.39	5.63804	-2.935	-1.4169
1801.8	6.57461	-2.43962	-0.41891
1802.2	7.22066	-2.25983	0.10502
1802.62	8.23798	-4.31003	0.48692
1803.02	9.59464	-4.62046	0.74335
1803.43	12.8587	-6.00312	0.84131
1803.84	17.7597	-5.62163	0.99292
1804.25	26.7014	-3.66703	1.14106
1804.66	20.9316	-1.43371	1.1442
1805.07	16.4658	2.06798	1.24085
1805.48	13.9575	8.99166	1.15811
1805.89	11.9695	8.50591	1.13124
1806.3	10.2568	5.74758	1.05648
1806.71	16.2385	3.5352	0.87676
1807.12	20.3323	1.38625	0.6033
1807.53	22.7996	-0.8955	0.32065
1807.93	23.6122	-3.15318	0.10523
1808.34	23.2876	-5.31357	-0.69288
1808.75	20.6221	-5.88503	-1.6821
1809.16	17.2286	-6.75118	-2.46623
1809.57	13.9098	-4.20191	-2.98268
1809.98	11.0842	-2.12574	-3.35426
1810.39	8.95986	5.59632	-3.43447
1810.8	6.91289	7.74762	-2.80523
1811.21	5.53672	9.51237	-2.30419
1811.61	4.56928	8.4709	-1.89905
1812.02	4.98209	2.66419	-1.94063
1812.43	7.12137	1.54552	-2.34673
1812.84	11.8792	0.40139	-1.88918
1813.25	12.6323	-0.63197	-0.93506
1813.66	16.3678	-2.01866	0.32313
1814.07	17.7354	-3.21145	1.00393
1814.47	18.6389	-3.60473	1.11699
1814.88	19.1997	-2.77773	1.326
1815.29	19.2047	-3.13121	1.46385
1815.7	18.4199	-3.38133	1.69167
1816.11	17.8258	-2.92985	2.87629
1816.52	17.3048	-2.06898	4.68304
1816.93	15.9456	-1.68044	4.61122
1817.33	14.496	-0.91595	4.0902
1817.74	14.9689	-0.24782	3.46288
1818.15	15.623	-0.61523	2.9181
1818.56	16.1335	-0.8031	2.66596
1818.97	16.1573	-1.27151	2.35427
1819.38	16.3171	-2.14009	2.15736
1819.78	15.9505	-2.51393	1.97025
1820.19	15.8029	-2.25386	2.49558
1820.6	15.1459	-1.88077	3.3614
1821.01	13.8453	-1.55517	4.25082
1821.42	12.4519	-0.73373	5.2012
1821.82	10.8643	0.63326	6.14272
1822.23	9.27851	0.9917	7.07195
1822.64	7.79527	1.14339	7.83045
1823.05	7.51274	1.83011	7.77407
1823.45	6.7195	2.33654	8.015
1823.86	5.96293	3.08542	7.84765
1824.27	5.80309	3.90256	6.63386
1824.68	6.0741	4.74769	3.41354
1825.09	7.3022	4.73456	3.14984
1825.49	9.51536	4.95121	2.95077
1825.9	11.738	5.0518	2.66584
1826.31	13.1395	4.73154	2.56226
1826.72	14.3396	4.63788	2.52297
1827.12	15.3291	4.76387	2.63182
1827.53	16.8954	4.79328	2.85453
1827.94	17.7485	4.83747	3.02057
1828.35	18.3976	4.83118	3.43852
1828.75	19.3262	5.14196	3.52392
1829.16	20.3046	5.91986	3.36087
1829.57	20.864	5.69172	0.96062
1829.98	20.465	5.07778	0.40373
1830.38	19.8677	4.84751	-0.17161
1830.79	19.7142	4.71884	-1.34732
1831.2	20.4363	4.39542	-2.6583
1831.61	20.8706	4.00666	-3.07036
1832.01	21.6613	3.87434	-3.78322
1832.42	22.0172	3.731	-3.94445
1832.83	22.18	3.58537	-3.78768
1833.23	21.5559	3.07919	-3.36713
1833.64	20.9145	2.31567	-2.67754
1834.05	20.158	1.91089	-1.77884
1834.45	18.3597	2.06555	-0.5409
1834.86	16.8295	2.27545	0.934
1835.27	15.1114	2.26774	2.3016
1835.68	13.6004	2.81595	3.39272
1836.08	11.6029	3.45778	4.24606
1836.49	9.55209	3.88985	4.98909
1836.9	7.75973	4.46774	5.63349
1837.3	6.32793	5.64195	6.34261
1837.71	6.10042	7.07394	7.20327
1838.12	6.96009	8.71584	7.64255
1838.52	9.12725	9.85654	7.52448
1838.93	11.3256	10.784	7.14949
1839.34	13.7391	10.9981	6.444
1839.74	15.7468	10.6085	5.36597
1840.15	16.6643	9.96356	4.11329
1840.56	17.5417	9.21768	2.87729
1840.96	18.2363	8.43966	1.80269
1841.37	18.8103	8.3465	0.8618
1841.78	20.6952	8.23455	0.02891
1842.18	23.1509	7.88686	-0.62317
1842.59	24.1476	7.71844	-1.08452
1843	23.8541	7.72105	-1.40307
1843.4	22.7869	7.11	-1.53678
1843.81	20.6311	6.66528	-1.05335
1844.21	16.8754	6.7101	0.18726
1844.62	13.104	6.92118	1.31096
1845.03	8.22819	7.83689	1.95346
1845.43	2.35914	8.83584	2.61906
1845.84	-1.67511	9.85577	3.43587
1846.25	-4.58588	10.6527	4.75488
1846.52	-7.02549	10.8204	6.64424
1846.94	-7.86837	10.4959	7.86504
1847.35	-1.28145	11.0347	9.37253
1847.76	2.0591	10.6472	9.96671
1848.17	6.33714	10.9693	10.2536
1848.58	10.4763	11.1809	10.4479
1848.99	14.0251	12.2357	10.6602
1849.4	18.2125	12.2002	10.8271
1849.81	20.4261	11.6043	10.9567
1850.22	20.8013	11.7065	10.9506
1850.64	16.0975	10.8266	10.6498
1851.05	15.3021	9.49815	10.1438
1851.46	15.553	7.60154	9.4578
1851.87	14.094	6.54104	8.75904
1852.28	12.0205	6.26289	8.4042
1852.69	8.68656	6.43617	7.77763
1853.1	4.93286	6.93483	7.08107
1853.51	2.5471	6.4385	6.27727
1853.92	-0.67014	5.50094	5.14189
1854.33	-5.19532	4.61455	4.05979
1854.74	-7.78221	4.43365	2.83916
1855.15	-9.58108	4.65675	1.78708
1855.57	-8.90552	6.2158	1.14778
1855.98	-5.91372	6.43706	1.66313
1856.39	-3.04099	7.55739	2.61703
1856.8	0.53811	7.74663	3.59953
1857.21	3.10046	7.82512	4.20053
1857.62	5.0501	7.90781	4.87975
1858.03	6.97895	7.70968	5.41081
1858.44	8.27803	7.9007	5.78952
1858.85	8.91924	7.74826	6.3258
1859.26	8.36695	8.14864	6.72138
1859.67	8.58932	9.69318	5.85645
1860.08	8.02578	12.0496	5.01214
1860.49	6.50607	12.7267	4.48552
1860.9	3.37137	11.2781	2.93057
1861.31	1.46312	9.08022	1.59376
1861.72	0.90753	6.86399	0.55255
1862.13	0.79874	5.61909	-0.22035
1862.54	1.13308	5.31629	-0.75874
1862.95	4.43962	4.7021	-0.95721
1863.36	11.3862	4.02979	-0.82406
1863.77	12.9379	3.08162	-0.3712
1864.18	13.482	1.60208	0.90444
1864.59	11.6149	2.0333	2.36033
1865	8.53467	4.38275	2.96182
1865.41	5.68824	8.18402	3.29332
1865.82	3.08368	8.99822	3.53367
1866.23	-1.12276	10.1551	3.58014
1866.64	-5.98831	11.3063	5.22204
1867.05	-9.49576	11.9668	5.46786
1867.46	-11.6682	12.0318	2.96849
1867.87	-13.4596	12.2072	-0.22682
1868.28	-12.821	12.5351	-2.51601
1868.69	-9.70357	12.5181	-4.25139
1869.1	-4.92474	13.1276	-4.97682
1869.51	-3.85751	12.3592	-5.13262
1869.92	-2.18691	11.0108	-4.89731
1870.33	0.71559	9.71299	-4.29126
1870.74	2.40189	7.71668	0.06991
1871.15	3.50786	5.76476	2.73242
1871.55	3.47892	3.28751	4.46824
1871.96	4.01356	0.67129	5.14462
1872.37	3.53477	-1.03323	4.23606
1872.78	0.67303	-2.38782	4.17334
1873.19	-1.14963	-3.49868	4.27226
1873.6	-2.77711	-5.28206	4.51793
1874.01	-4.68886	-6.87806	4.68849
1874.42	-6.81851	-7.64294	4.7671
1874.83	-6.7045	-8.22072	4.61197
1875.24	-6.52675	-8.40557	4.23154
1875.65	-6.06028	-8.91819	3.54841
1876.06	-5.47489	-8.52361	2.65279
1876.46	-4.50824	-7.7195	1.99268
1876.87	-0.96003	-6.25217	2.43846
1877.28	1.85348	-4.90803	3.07178
1877.69	4.38346	-3.53545	3.55073
1878.1	6.20377	-1.62111	3.70405
1878.51	7.9415	0.04435	4.09491
1878.92	8.54973	1.84408	4.29229
1879.33	8.89581	3.73037	4.35094
1879.74	9.92957	5.43649	4.14414
1880.15	11.0162	6.80327	3.59927
1880.55	11.2432	6.92093	2.65262
1880.96	11.5721	6.81829	0.82615
1881.37	12.8351	6.99655	-1.23316
1881.78	13.01	6.10783	-1.80386
1882.19	12.4591	5.70595	-2.10935
1882.6	9.55947	4.74747	-2.2308
1883.01	7.9502	4.17027	-2.24572
1883.41	5.79951	3.39938	-2.21759
1883.82	3.53514	1.42993	-2.25382
1884.23	1.33384	-0.18522	-2.31938
1884.64	-0.10993	-1.71853	-2.28157
1885.05	-1.43873	-1.60311	-2.19875
1885.46	-2.53088	-1.25519	-2.08958
1885.87	-4.2572	-0.94616	-1.936
1886.27	-7.05032	-0.7125	-1.75729
1886.68	-7.37069	-0.36256	-1.56663
1887.09	-6.28755	-1.08706	-1.34896
1887.5	-6.01859	-1.46732	-1.06189
1887.91	-5.27248	-2.00484	-0.74651
1888.31	-3.2184	-1.99102	-0.34532
1888.72	-1.61476	-1.39935	0.05891
1889.13	0.73056	-0.22813	0.52333
1889.54	1.72517	0.461	0.98335
1889.95	1.72406	0.1412	1.55544
1890.36	1.44998	-0.15715	2.10629
1890.76	0.95326	-0.90669	2.77324
1891.17	1.00671	-1.44067	3.42153
1891.58	0.34209	-3.07006	3.63311
1891.99	1.0911	-4.38667	3.10686
1892.4	0.58939	-5.39347	2.16572
1892.8	1.28252	-6.27528	1.96214
1893.21	-0.29693	-6.45886	1.89079
1893.62	-1.52774	-6.93003	1.73207
1894.03	-4.70152	-6.9272	2.08838
1894.43	-6.92893	-6.08129	0.54219
1894.84	-8.14576	-4.82187	-0.55395
1895.25	-7.63089	-4.49236	-1.40542
1895.66	-7.6431	-3.96582	-2.3146
1896.07	-7.06507	-2.9754	-3.29673
1896.47	-5.84225	-1.29563	-4.45228
1896.88	-4.16377	0.03802	-5.70077
1897.29	-2.46128	0.82989	-7.21475
1897.7	-1.04124	0.84408	-8.40214
1898.1	0.22284	1.22097	-8.68031
1898.51	2.9718	0.786	-8.10063
1898.92	5.8113	0.11478	-6.7777
1899.33	6.86318	0.2536	-4.09696
1899.73	6.99835	0.10097	-3.11696
1900.14	6.88416	-0.10058	-1.7602
1900.55	0.39822	-0.82804	0.12303
1900.95	-0.58808	-1.99153	-0.54498
1901.36	-1.39931	-2.39118	-0.94143
1901.77	-2.13152	-2.55555	-1.39018
1902.18	-3.29151	-1.18724	-2.17745
1902.58	-4.22225	0.4339	-3.20381
1902.99	-5.06483	2.74676	-5.37231
1903.4	-4.66903	4.24415	-6.0357
1903.8	-3.68548	5.28088	-6.84075
1904.21	-1.97739	5.67778	-7.51413
1904.62	-1.20371	5.85405	-7.74456
1905.03	-1.53043	6.18727	-7.14076
1905.43	-1.37703	6.72697	-5.88566
1905.84	-1.22238	6.62184	-3.85068
1906.25	-1.86318	6.25362	-1.73953
1906.65	-1.253	6.81418	-0.76772
1907.06	-1.37776	6.56744	0.09982
1907.47	-1.01576	6.27674	0.89314
1907.87	-1.33294	5.21035	1.54604
1908.28	-2.91218	4.0835	2.09724
1908.69	-3.91444	2.84726	2.4176
1909.09	-3.42047	0.91432	2.51844
1909.5	-2.59783	-0.0522	2.47695
1909.91	-2.98195	-0.68502	2.6454
1910.31	-2.98689	-0.75476	1.21753
1910.72	-4.08809	3.20589	-0.73659
1911.13	-4.19268	2.61524	-2.11333
1911.53	-3.86487	1.1005	-2.78939
1911.94	-5.56288	-0.56573	-2.17419
1912.35	-8.54872	-2.84649	-1.06692
1912.75	-10.9246	-4.23456	0.28876
1913.16	-13.0463	-4.69173	1.57022
1913.57	-14.7948	-5.11583	2.86597
1913.97	-15.5907	-4.6443	4.3314
1914.38	-15.4021	-3.60942	5.49948
1914.79	-14.6942	-2.1113	6.63071
1915.19	-13.2275	-1.68201	7.54734
1915.6	-10.0557	-2.39861	9.26074
1916	-5.93435	-3.66548	9.77176
1916.41	-2.44614	-3.66833	12.0931
1916.81	1.7131	-3.87526	8.86515
1917.22	5.44609	-3.96806	6.28833
1917.63	8.31278	-5.28679	2.38427
1918.03	10.682	-6.11078	-5.52747
1918.44	12.8467	-6.47697	-8.8221
1918.85	13.769	-6.16531	-10.6283
1919.25	14.5458	-6.41477	-11.5038
1919.66	12.8452	-6.17583	-11.5462
1920.06	10.1501	-6.36031	-10.4472
1920.47	7.93419	-6.58985	-8.15429
1920.87	5.57341	-6.66308	-3.42543
1921.28	2.7369	-7.52807	-1.14712
1921.69	0.90944	-7.55316	-1.77146
1922.09	0.50811	-8.43166	-3.44644
1922.5	2.399	-8.78254	-4.13457
1922.9	3.30479	-8.47845	-3.54872
1923.31	5.10459	-8.41302	-2.93489
1923.71	6.04015	-8.80454	-2.89826
1924.12	6.60872	-8.20487	-3.04985
1924.53	8.20072	-8.12367	-2.99348
1924.93	8.86298	-7.46364	-3.17379
1925.34	8.97872	-6.89316	-3.44218
1925.74	10.7128	-5.68125	-4.98967
1926.15	11.4357	-3.11816	-5.06497
1926.55	11.2099	0.95577	-4.5921
1926.96	10.4495	6.05813	-4.05353
1927.36	9.52648	7.96265	-3.66871
1927.77	6.15153	9.16035	-2.92382
1928.17	5.0653	9.46888	-1.10665
1928.58	3.95412	9.31883	0.60621
1928.99	0.9662	8.63922	1.31953
1929.39	-2.62813	7.39954	1.67887
1929.8	-4.89355	6.41819	1.92193
1930.2	-4.46869	4.79439	1.94684
1930.61	-4.48183	4.28811	2.65975
1931.01	-5.94035	3.31288	2.58073
1931.42	-4.42161	1.5409	1.17053
1931.82	-3.56244	-0.3483	-0.87028
1932.23	-2.86009	-2.94631	-2.72377
1932.63	-0.2148	-5.96156	-4.08092
1933.04	1.84001	-7.68972	-5.09345
1933.44	4.46687	-9.02892	-5.69148
1933.85	6.69078	-10.1903	-6.02358
1934.25	10.5861	-10.7535	-5.95663
1934.66	13.3793	-10.8873	-5.28554
1935.06	15.927	-10.6424	-4.07068
1935.47	17.9478	-9.26719	-3.37942
1935.87	20.3371	-8.35576	-2.63628
1936.27	22.9412	-7.77542	-1.78009
1936.68	23.2098	-6.11227	-0.66064
1937.08	21.8394	-4.31149	0.4612
1937.49	21.3072	-2.61615	1.32123
1937.89	20.5467	-0.72652	1.30931
1938.3	20.8068	1.60321	0.72386
1938.7	18.6273	4.032	-0.13679
1939.11	17.6884	4.66847	-1.63229
1939.51	17.5747	5.22126	-1.58995
1939.92	16.4723	5.63092	-0.91289
1940.32	14.3983	3.93833	-0.19595
1940.72	12.1353	3.25873	0.11066
1941.13	9.06122	2.67598	-0.44325
1941.53	7.27095	3.34877	-1.17802
1941.94	6.51557	3.96168	-1.9637
1942.34	6.76912	5.3443	-2.63419
1942.75	7.24802	6.11735	-3.16543
1943.15	8.76951	5.85149	-3.6916
1943.56	11.3659	4.5476	-3.85733
1943.96	12.6651	3.45313	-4.01056
1944.36	12.6386	2.98418	-4.08799
1944.77	12.3939	1.10048	-4.84906
1945.17	12.3717	-0.51548	-5.77826
1945.57	9.65866	-2.78153	-6.44493
1945.98	6.68143	-4.96319	-5.83051
1946.38	5.1547	-6.61966	-4.71064
1946.79	4.16831	-9.19491	-3.29503
1947.19	2.12265	-11.5537	-2.07893
1947.6	1.15419	-13.0878	-0.37666
1948	1.7959	-13.5573	0.82494
1948.4	2.18247	-13.4225	1.33291
1948.81	2.9753	-12.2816	1.89138
1949.21	2.90902	-9.69141	2.57432
1949.61	1.39877	-7.49038	3.31264
1950.02	0.64681	-5.45728	3.96193
1950.42	-0.22663	-2.74215	4.62399
1950.82	-0.51073	-0.24816	5.30334
1951.23	0.148	0.57617	5.98888
1951.63	-0.14777	1.64859	6.78766
1952.04	-1.08593	3.70284	7.65756
1952.44	-2.25157	4.59001	8.53584
1952.84	-2.86502	5.04679	9.08901
1953.25	-2.24053	4.45085	9.08389
1953.65	-1.97732	3.01094	9.8855
1954.05	-0.21982	1.69095	9.42291
1954.46	1.86874	0.07042	7.95221
1954.86	3.6271	-2.08085	5.59267
1955.26	6.90891	-3.66801	3.03545
1955.67	8.11417	-3.83047	1.99956
1956.07	8.55523	-3.19202	1.02122
1956.47	7.96867	-3.3508	0.14623
1956.88	7.78039	-3.65568	-0.9965
1957.28	6.31483	-2.85594	-2.45423
1957.68	3.9919	-1.52042	-3.70315
1958.08	0.52459	-0.62272	-3.83007
1958.49	-1.77823	1.69071	-3.43809
1958.89	-2.14585	3.23021	-2.87235
1959.29	-2.54177	4.91985	-2.43752
1959.7	-2.95563	5.99316	-1.70672
1960.1	-3.83533	7.23968	-0.95864
1960.5	-5.99201	6.27624	-0.17205
1960.91	-6.75054	5.8815	0.52366
1961.31	-5.74386	4.83185	0.76949
1961.71	-3.00761	4.57563	0.73656
1962.11	3.52911	3.29882	0.69598
1962.52	5.62838	1.00949	0.72422
1962.92	7.63918	-0.6999	1.09969
1963.32	10.2313	-2.84671	1.90745
1963.73	12.0338	-4.06396	2.85652
1964.13	13.5043	-5.42347	3.77048
1964.53	15.1512	-6.06182	4.62248
1964.93	15.4455	-5.73947	5.16066
1965.34	15.1994	-5.40244	5.56976
1965.74	16.2701	-4.53186	5.87529
1966.14	17.8808	-3.53036	5.91816
1966.54	20.2276	-2.67867	5.62601
1966.95	21.1147	-1.64147	5.32604
1967.35	19.8547	-0.74241	5.10343
1967.75	18.4943	-0.37638	6.13011
1968.15	16.8045	0.70152	5.85375
1968.56	14.8867	1.74639	3.80118
1968.96	12.8984	2.13815	2.12629
1969.36	10.5223	2.93008	0.92169
1969.76	9.35388	3.7389	0.33468
1970.16	6.79279	4.11784	0.1719
1970.57	4.60689	3.06897	0.6187
1970.97	3.40889	2.46984	1.12298
1971.37	1.195	2.2964	1.47114
1971.77	-0.20102	0.4621	1.39635
1972.18	0.01736	-1.51694	0.50268
1972.58	0.43609	-4.06298	-0.52347
1972.98	0.7549	-5.94505	-1.03313
1973.38	3.41586	-8.38584	-1.10351
1973.78	5.49635	-9.66339	-1.47959
1974.18	6.87604	-9.19876	-1.77717
1974.59	6.91903	-7.00804	-2.28416
1974.99	5.71692	-5.38728	-1.94073
1975.39	3.80519	-3.64652	-1.42127
1975.79	3.66829	-1.93423	-0.80667
1976.2	4.48607	-0.32263	-0.22068
1976.6	4.49835	1.51646	0.28682
1977	3.46876	2.14826	0.74944
1977.4	1.9314	3.67641	0.9841
1977.8	2.21788	5.26824	1.11914
1978.2	1.12128	5.69473	1.01971
1978.61	0.58275	4.74927	0.9814
1979.01	0.1638	5.16226	0.57892
1979.41	-0.29783	5.13684	0.16389
1979.81	-0.12979	4.13336	-0.36229
1980.21	2.31611	2.62602	-0.9009
1980.61	1.60428	-0.56716	-1.42382
1981.01	-0.04422	-2.40203	-1.94117
1981.42	-0.29453	-4.31094	-2.36549
1981.82	-3.266	-4.88741	-2.52866
1982.22	-7.25581	-5.19273	-2.15033
1982.62	-5.68081	-6.1639	-1.82615
1983.02	-2.24277	-6.87296	-1.21795
1983.42	3.35658	-6.14635	-0.80217
1983.82	12.2083	-4.01113	-0.64121
1984.22	16.2736	-2.21259	-0.63116
1984.63	18.0155	0.34122	-0.58044
1985.03	16.0739	2.02538	-0.60469
1985.43	11.254	4.66342	-0.71753
1985.83	4.48933	7.30715	-1.04466
1986.23	-7.17673	9.27072	-1.44316
1986.63	-9.43794	11.4706	-1.98319
1987.03	-9.68088	11.6427	-2.63025
1987.43	-6.34162	11.5637	-3.78313
1987.83	0.6051	12.093	-4.88654
1988.24	5.94915	11.7061	-5.93471
1988.64	10.1539	11.8543	-5.86459
1989.04	11.0483	12.6809	-5.40772
1989.44	7.62458	13.7339	-4.67972
1989.84	8.68881	14.4795	-4.45851
1990.24	11.5956	13.8371	-3.63733
1990.64	12.6505	12.2147	-1.35982
1991.04	12.6883	11.1535	1.43782
1991.44	13.3658	9.73303	3.42164
1991.84	13.2898	8.53845	3.09161
1992.24	13.5213	6.76103	2.07357
1992.64	12.4898	5.03291	1.07117
1993.04	12.9659	3.15332	-0.29295
1993.44	11.7885	2.56971	-1.41769
1993.84	10.347	2.43752	-3.1394
1994.24	9.304	2.24487	-2.66127
1994.65	7.35862	1.79303	-1.19246
1995.05	5.70733	0.68223	2.07794
1995.45	2.60667	0.57418	4.28752
1995.85	-0.12693	0.78722	4.70579
1996.25	-1.78166	0.13392	6.49438
1996.65	-3.67178	0.74601	0.76205
1997.05	-4.971	1.30497	0.90601
1997.45	-5.84892	1.62528	1.04845
1997.85	-6.50432	1.50227	1.14638
1998.25	-6.66435	0.98903	1.1766
1998.65	-7.42145	1.05161	1.13524
1999.05	-9.01141	1.02873	1.00285
1999.45	-7.7476	1.49808	0.6714
1999.85	-7.31428	2.60045	0.29079